0.336270
0.333330
0.330400
0.327470
0.324540
0.321600
0.318670
0.314760
0.310850
0.307920
0.305960
0.306940
0.311830
0.324540
0.341150
0.364610
0.397850
0.440860
0.489740
0.541540
0.597260
0.651030
0.695990
0.730210
0.754640
0.770280
0.777130
0.777130
0.772240
0.763440
0.750730
0.734120
0.714570
0.692080
0.666670
0.639300
0.608990
0.578690
0.547410
0.519060
0.493650
0.467250
0.442820
0.420330
0.401760
0.387100
0.376340
0.369500
0.364610
0.362660
0.360700
0.360700
0.360700
0.359730
0.358750
0.357770
0.355820
0.353860
0.350930
0.347020
0.344090
0.340180
0.337240
0.333330
0.331380
0.328450
0.325510
0.322580
0.319650
0.315740
0.311830
0.307920
0.303030
0.298140
0.293260
0.288370
0.285430
0.282500
0.279570
0.277610
0.279570
0.287390
0.303030
0.327470
0.360700
0.402740
0.451610
0.503420
0.555230
0.596290
0.629520
0.660800
0.685240
0.701860
0.710650
0.712610
0.707720
0.697950
0.683280
0.666670
0.646140
0.626590
0.605080
0.580650
0.552300
0.522970
0.492670
0.462370
0.433040
0.406650
0.383190
0.363640
0.347020
0.335290
0.328450
0.324540
0.322580
0.322580
0.323560
0.324540
0.325510
0.326490
0.326490
0.325510
0.324540
0.323560
0.321600
0.319650
0.317690
0.313780
0.310850
0.307920
0.304990
0.301080
0.298140
0.294230
0.291300
0.287390
0.283480
0.280550
0.278590
0.274680
0.270770
0.266860
0.262950
0.258060
0.254150
0.251220
0.251220
0.255130
0.264910
0.278590
0.298140
0.328450
0.366570
0.410560
0.458460
0.506350
0.550340
0.588470
0.618770
0.639300
0.652000
0.655910
0.653960
0.646140
0.635390
0.619750
0.600200
0.578690
0.553270
0.525900
0.497560
0.469210
0.439880
0.413490
0.391010
0.371460
0.353860
0.337240
0.323560
0.312810
0.305960
0.301080
0.299120
0.298140
0.300100
0.301080
0.303030
0.304010
0.305960
0.305960
0.305960
0.304990
0.304010
0.303030
0.301080
0.299120
0.296190
0.294230
0.291300
0.290320
0.288370
0.286410
0.285430
0.282500
0.280550
0.277610
0.273700
0.270770
0.266860
0.262950
0.260020
0.256110
0.253180
0.251220
0.250240
0.251220
0.257090
0.269790
0.290320
0.318670
0.355820
0.399800
0.446730
0.494620
0.533720
0.566960
0.597260
0.621700
0.639300
0.649070
0.651030
0.646140
0.635390
0.620720
0.601170
0.579670
0.555230
0.531770
0.509290
0.483870
0.456500
0.430110
0.404690
0.381230
0.361680
0.345060
0.331380
0.320630
0.313780
0.308900
0.306940
0.306940
0.306940
0.306940
0.308900
0.309870
0.310850
0.310850
0.310850
0.309870
0.307920
0.306940
0.305960
0.304990
0.303030
0.302050
0.300100
0.298140
0.297170
0.295210
0.293260
0.290320
0.287390
0.284460
0.282500
0.280550
0.277610
0.274680
0.271750
0.267840
0.264910
0.261970
0.261000
0.262950
0.268820
0.281520
0.298140
0.319650
0.351910
0.391980
0.436950
0.482890
0.528840
0.568910
0.602150
0.627570
0.644180
0.652980
0.653960
0.649070
0.641250
0.628540
0.612900
0.594330
0.572830
0.548390
0.522970
0.495600
0.468230
0.441840
0.416420
0.395890
0.378300
0.360700
0.346040
0.334310
0.325510
0.319650
0.315740
0.313780
0.312810
0.313780
0.314760
0.316720
0.317690
0.318670
0.319650
0.319650
0.318670
0.317690
0.315740
0.313780
0.311830
0.308900
0.306940
0.304010
0.302050
0.301080
0.299120
0.297170
0.294230
0.291300
0.288370
0.285430
0.281520
0.278590
0.274680
0.270770
0.267840
0.265880
0.265880
0.266860
0.272730
0.284460
0.303030
0.331380
0.367550
0.411530
0.458460
0.507330
0.553270
0.590420
0.618770
0.645160
0.664710
0.676440
0.681330
0.679370
0.672530
0.661780
0.647120
0.629520
0.608990
0.587490
0.565980
0.544480
0.520040
0.494620
0.468230
0.443790
0.421310
0.400780
0.384160
0.370480
0.360700
0.353860
0.349950
0.348970
0.348000
0.348000
0.349950
0.350930
0.352880
0.354840
0.355820
0.355820
0.356790
0.355820
0.355820
0.355820
0.354840
0.353860
0.351910
0.349950
0.348000
0.345060
0.342130
0.340180
0.337240
0.335290
0.332360
0.329420
0.327470
0.324540
0.321600
0.317690
0.313780
0.310850
0.308900
0.311830
0.318670
0.334310
0.357770
0.391010
0.426200
0.463340
0.509290
0.558160
0.606060
0.649070
0.686220
0.713590
0.733140
0.744870
0.748780
0.746820
0.740960
0.732160
0.720430
0.705770
0.688170
0.668620
0.647120
0.621700
0.595310
0.566960
0.537630
0.508310
0.479960
0.457480
0.437930
0.420330
0.404690
0.391980
0.383190
0.377320
0.373410
0.372430
0.371460
0.372430
0.372430
0.373410
0.372430
0.371460
0.369500
0.367550
0.364610
0.361680
0.357770
0.354840
0.350930
0.348000
0.344090
0.340180
0.338220
0.335290
0.332360
0.329420
0.326490
0.322580
0.318670
0.314760
0.310850
0.306940
0.303030
0.299120
0.296190
0.296190
0.299120
0.307920
0.324540
0.348970
0.383190
0.424240
0.471160
0.519060
0.565980
0.608020
0.643210
0.666670
0.682310
0.693060
0.697950
0.696970
0.691100
0.681330
0.667640
0.651030
0.631480
0.609970
0.585530
0.562070
0.539590
0.513200
0.484850
0.457480
0.431090
0.406650
0.385140
0.367550
0.352880
0.342130
0.334310
0.330400
0.328450
0.327470
0.326490
0.327470
0.327470
0.327470
0.324540
0.321600
0.318670
0.316720
0.313780
0.310850
0.308900
0.306940
0.304010
0.301080
0.297170
0.293260
0.290320
0.286410
0.283480
0.279570
0.274680
0.270770
0.267840
0.264910
0.261000
0.256110
0.251220
0.245360
0.240470
0.237540
0.237540
0.241450
0.253180
0.271750
0.299120
0.329420
0.361680
0.402740
0.447700
0.491690
0.531770
0.565980
0.591400
0.608990
0.617790
0.619750
0.615840
0.608020
0.597260
0.581620
0.564030
0.542520
0.520040
0.494620
0.469210
0.441840
0.415440
0.390030
0.366570
0.346040
0.329420
0.317690
0.306940
0.298140
0.292280
0.288370
0.286410
0.286410
0.287390
0.289350
0.291300
0.293260
0.294230
0.296190
0.296190
0.295210
0.294230
0.293260
0.292280
0.291300
0.289350
0.288370
0.287390
0.285430
0.284460
0.282500
0.281520
0.279570
0.277610
0.273700
0.270770
0.266860
0.262950
0.259040
0.255130
0.251220
0.248290
0.245360
0.246330
0.249270
0.257090
0.272730
0.296190
0.327470
0.365590
0.409580
0.455520
0.500490
0.540570
0.575760
0.599220
0.615840
0.626590
0.630500
0.629520
0.622680
0.611930
0.596290
0.578690
0.557180
0.534700
0.509290
0.486800
0.465300
0.440860
0.411530
0.386120
0.368520
0.351910
0.337240
0.325510
0.316720
0.310850
0.307920
0.305960
0.304990
0.305960
0.306940
0.307920
0.308900
0.309870
0.309870
0.309870
0.308900
0.307920
0.306940
0.304990
0.304010
0.303030
0.301080
0.298140
0.296190
0.294230
0.292280
0.290320
0.287390
0.284460
0.281520
0.278590
0.275660
0.273700
0.272730
0.270770
0.267840
0.264910
0.262950
0.261970
0.264910
0.272730
0.288370
0.310850
0.343110
0.375370
0.410560
0.452590
0.496580
0.539590
0.577710
0.608990
0.631480
0.646140
0.652000
0.651030
0.644180
0.633430
0.619750
0.604110
0.585530
0.564030
0.539590
0.514170
0.487780
0.461390
0.435000
0.410560
0.388070
0.369500
0.353860
0.343110
0.333330
0.325510
0.320630
0.316720
0.314760
0.313780
0.314760
0.314760
0.314760
0.314760
0.314760
0.314760
0.313780
0.312810
0.310850
0.308900
0.305960
0.303030
0.300100
0.297170
0.294230
0.290320
0.287390
0.284460
0.282500
0.279570
0.276640
0.272730
0.269790
0.266860
0.262950
0.260020
0.257090
0.254150
0.252200
0.252200
0.256110
0.263930
0.279570
0.303030
0.335290
0.375370
0.421310
0.471160
0.520040
0.565000
0.603130
0.634410
0.654940
0.666670
0.672530
0.674490
0.670580
0.662760
0.645160
0.627570
0.612900
0.593350
0.571850
0.547410
0.523950
0.513200
0.504400
0.485830
0.463340
0.441840
0.421310
0.404690
0.391980
0.382210
0.376340
0.372430
0.371460
0.372430
0.373410
0.376340
0.378300
0.380250
0.382210
0.382210
0.381230
0.380250
0.378300
0.376340
0.374390
0.373410
0.372430
0.371460
0.370480
0.368520
0.366570
0.363640
0.360700
0.358750
0.355820
0.352880
0.349950
0.347020
0.345060
0.342130
0.338220
0.334310
0.330400
0.329420
0.333330
0.343110
0.361680
0.391010
0.429130
0.477030
0.521990
0.566960
0.616810
0.666670
0.711630
0.748780
0.776150
0.794720
0.804500
0.806450
0.801560
0.792770
0.779080
0.763440
0.745850
0.725320
0.701860
0.675460
0.647120
0.617790
0.586510
0.556210
0.526880
0.500490
0.476050
0.456500
0.441840
0.429130
0.419350
0.411530
0.405670
0.402740
0.401760
0.401760
0.400780
0.400780
0.399800
0.398830
0.396870
0.395890
0.392960
0.390030
0.386120
0.382210
0.377320
0.373410
0.369500
0.365590
0.361680
0.356790
0.352880
0.349950
0.345060
0.341150
0.336270
0.331380
0.327470
0.322580
0.317690
0.312810
0.307920
0.305960
0.307920
0.312810
0.323560
0.342130
0.371460
0.410560
0.458460
0.511240
0.565000
0.615840
0.666670
0.706740
0.729230
0.742910
0.749760
0.750730
0.745850
0.736070
0.722390
0.705770
0.686220
0.663730
0.638320
0.610950
0.581620
0.551320
0.522970
0.497560
0.469210
0.441840
0.416420
0.393940
0.374390
0.359730
0.348970
0.341150
0.337240
0.334310
0.334310
0.335290
0.336270
0.337240
0.337240
0.337240
0.336270
0.335290
0.333330
0.331380
0.328450
0.325510
0.321600
0.319650
0.316720
0.313780
0.309870
0.306940
0.303030
0.299120
0.295210
0.291300
0.287390
0.282500
0.278590
0.275660
0.272730
0.268820
0.264910
0.261970
0.260020
0.261000
0.268820
0.283480
0.307920
0.341150
0.382210
0.422290
0.462370
0.507330
0.552300
0.592380
0.624630
0.649070
0.664710
0.671550
0.670580
0.662760
0.650050
0.633430
0.615840
0.596290
0.573800
0.547410
0.520040
0.491690
0.462370
0.434020
0.406650
0.382210
0.360700
0.343110
0.331380
0.322580
0.315740
0.310850
0.307920
0.306940
0.306940
0.307920
0.308900
0.310850
0.311830
0.312810
0.312810
0.312810
0.311830
0.310850
0.308900
0.306940
0.304010
0.302050
0.299120
0.296190
0.293260
0.289350
0.286410
0.284460
0.282500
0.279570
0.276640
0.272730
0.268820
0.264910
0.261970
0.258060
0.255130
0.252200
0.251220
0.253180
0.263930
0.276640
0.290320
0.313780
0.348000
0.390030
0.436950
0.477030
0.509290
0.541540
0.569890
0.591400
0.604110
0.609970
0.610950
0.606060
0.597260
0.583580
0.566960
0.546430
0.523950
0.499510
0.474100
0.448680
0.423260
0.401760
0.384160
0.365590
0.348970
0.334310
0.322580
0.313780
0.307920
0.304010
0.301080
0.301080
0.301080
0.302050
0.303030
0.304010
0.305960
0.306940
0.306940
0.306940
0.305960
0.304010
0.302050
0.300100
0.299120
0.297170
0.296190
0.296190
0.295210
0.293260
0.292280
0.290320
0.288370
0.285430
0.283480
0.280550
0.277610
0.274680
0.272730
0.270770
0.267840
0.265880
0.263930
0.264910
0.270770
0.281520
0.299120
0.324540
0.358750
0.398830
0.442820
0.481920
0.516130
0.552300
0.585530
0.611930
0.630500
0.641250
0.645160
0.642230
0.634410
0.621700
0.605080
0.588470
0.570870
0.549360
0.525900
0.501470
0.475070
0.449660
0.426200
0.403710
0.383190
0.366570
0.351910
0.341150
0.334310
0.330400
0.328450
0.327470
0.327470
0.328450
0.329420
0.329420
0.330400
0.330400
0.329420
0.328450
0.328450
0.327470
0.326490
0.325510
0.323560
0.321600
0.318670
0.315740
0.312810
0.310850
0.308900
0.305960
0.304010
0.302050
0.301080
0.298140
0.294230
0.291300
0.288370
0.284460
0.281520
0.278590
0.276640
0.278590
0.285430
0.296190
0.311830
0.337240
0.371460
0.412510
0.458460
0.506350
0.552300
0.592380
0.626590
0.652980
0.670580
0.680350
0.683280
0.680350
0.673510
0.662760
0.649070
0.632450
0.613880
0.592380
0.568910
0.544480
0.518080
0.491690
0.469210
0.448680
0.428150
0.408600
0.391980
0.378300
0.367550
0.359730
0.354840
0.351910
0.350930
0.350930
0.351910
0.352880
0.354840
0.355820
0.355820
0.355820
0.355820
0.355820
0.354840
0.352880
0.351910
0.349950
0.347020
0.346040
0.344090
0.342130
0.339200
0.337240
0.335290
0.333330
0.331380
0.329420
0.326490
0.324540
0.321600
0.318670
0.315740
0.312810
0.311830
0.311830
0.323560
0.338220
0.353860
0.380250
0.416420
0.460410
0.508310
0.557180
0.597260
0.630500
0.662760
0.689150
0.707720
0.719450
0.723360
0.722390
0.716520
0.706740
0.694040
0.677420
0.660800
0.642230
0.620720
0.597260
0.571850
0.544480
0.518080
0.491690
0.466280
0.442820
0.422290
0.402740
0.388070
0.380250
0.375370
0.372430
0.370480
0.370480
0.371460
0.372430
0.374390
0.375370
0.375370
0.373410
0.372430
0.370480
0.368520
0.365590
0.362660
0.359730
0.356790
0.352880
0.348970
0.346040
0.342130
0.337240
0.332360
0.329420
0.324540
0.316720
0.310850
0.305960
0.301080
0.296190
0.291300
0.288370
0.288370
0.293260
0.304010
0.320630
0.342130
0.375370
0.417400
0.466280
0.517110
0.565980
0.610950
0.650050
0.679370
0.700880
0.712610
0.717500
0.715540
0.709680
0.698920
0.685240
0.669600
0.650050
0.629520
0.605080
0.578690
0.551320
0.521990
0.491690
0.466280
0.443790
0.420330
0.397850
0.378300
0.362660
0.349950
0.340180
0.333330
0.328450
0.326490
0.325510
0.324540
0.324540
0.324540
0.323560
0.322580
0.320630
0.318670
0.315740
0.312810
0.309870
0.305960
0.302050
0.297170
0.293260
0.290320
0.287390
0.283480
0.278590
0.274680
0.269790
0.264910
0.260020
0.255130
0.250240
0.244380
0.239490
0.235580
0.232650
0.230690
0.229720
0.234600
0.245360
0.263930
0.291300
0.326490
0.368520
0.414470
0.461390
0.500490
0.533720
0.565000
0.590420
0.608990
0.620720
0.623660
0.620720
0.612900
0.600200
0.584560
0.565000
0.542520
0.521020
0.499510
0.474100
0.447700
0.421310
0.395890
0.371460
0.349950
0.331380
0.315740
0.304990
0.297170
0.293260
0.291300
0.290320
0.290320
0.291300
0.292280
0.293260
0.294230
0.294230
0.295210
0.294230
0.293260
0.292280
0.292280
0.290320
0.287390
0.285430
0.282500
0.279570
0.276640
0.273700
0.270770
0.266860
0.263930
0.261000
0.258060
0.256110
0.253180
0.249270
0.245360
0.241450
0.237540
0.233630
0.231670
0.231670
0.235580
0.245360
0.259040
0.278590
0.306940
0.343110
0.386120
0.432060
0.478010
0.521020
0.558160
0.588470
0.609970
0.622680
0.627570
0.626590
0.620720
0.608990
0.593350
0.574780
0.554250
0.530790
0.506350
0.479960
0.452590
0.426200
0.400780
0.379280
0.360700
0.344090
0.328450
0.315740
0.306940
0.301080
0.297170
0.296190
0.296190
0.298140
0.299120
0.301080
0.303030
0.304010
0.304990
0.304990
0.304990
0.304010
0.303030
0.302050
0.300100
0.299120
0.298140
0.296190
0.296190
0.295210
0.294230
0.292280
0.290320
0.287390
0.284460
0.281520
0.278590
0.275660
0.271750
0.268820
0.264910
0.261970
0.261000
0.260020
0.261000
0.266860
0.278590
0.299120
0.327470
0.363640
0.405670
0.452590
0.498530
0.537630
0.568910
0.599220
0.623660
0.640270
0.649070
0.650050
0.645160
0.634410
0.620720
0.603130
0.582600
0.559140
0.537630
0.516130
0.490710
0.465300
0.439880
0.414470
0.391980
0.370480
0.352880
0.339200
0.328450
0.319650
0.315740
0.312810
0.311830
0.311830
0.311830
0.312810
0.314760
0.314760
0.321600
0.329420
0.333330
0.334310
0.333330
0.331380
0.330400
0.327470
0.325510
0.323560
0.320630
0.318670
0.315740
0.311830
0.307920
0.304990
0.301080
0.298140
0.295210
0.292280
0.288370
0.284460
0.280550
0.276640
0.272730
0.270770
0.271750
0.278590
0.292280
0.314760
0.341150
0.371460
0.411530
0.457480
0.506350
0.552300
0.594330
0.629520
0.655910
0.673510
0.682310
0.685240
0.682310
0.675460
0.664710
0.650050
0.633430
0.612900
0.590420
0.565980
0.539590
0.513200
0.486800
0.461390
0.437930
0.418380
0.402740
0.388070
0.376340
0.366570
0.360700
0.357770
0.355820
0.356790
0.357770
0.359730
0.361680
0.363640
0.364610
0.365590
0.365590
0.365590
0.364610
0.363640
0.362660
0.361680
0.359730
0.358750
0.357770
0.356790
0.356790
0.355820
0.354840
0.353860
0.351910
0.349950
0.347020
0.344090
0.341150
0.338220
0.335290
0.331380
0.329420
0.328450
0.330400
0.335290
0.346040
0.365590
0.393940
0.430110
0.474100
0.523950
0.573800
0.622680
0.660800
0.690130
0.716520
0.737050
0.750730
0.756600
0.756600
0.750730
0.740960
0.728250
0.711630
0.692080
0.669600
0.648090
0.625610
0.600200
0.572830
0.544480
0.516130
0.490710
0.466280
0.445750
0.428150
0.414470
0.403710
0.396870
0.391980
0.389050
0.388070
0.388070
0.388070
0.389050
0.390030
0.391010
0.391980
0.391980
0.391010
0.389050
0.387100
0.385140
0.382210
0.379280
0.375370
0.372430
0.368520
0.364610
0.361680
0.357770
0.352880
0.348970
0.345060
0.342130
0.338220
0.334310
0.330400
0.325510
0.320630
0.317690
0.315740
0.317690
0.325510
0.340180
0.364610
0.391010
0.421310
0.462370
0.507330
0.554250
0.599220
0.638320
0.669600
0.693060
0.707720
0.715540
0.715540
0.711630
0.702830
0.691100
0.675460
0.657870
0.637340
0.613880
0.588470
0.561090
0.532750
0.504400
0.476050
0.448680
0.427170
0.408600
0.391010
0.376340
0.363640
0.353860
0.347020
0.342130
0.340180
0.338220
0.337240
0.337240
0.336270
0.336270
0.335290
0.334310
0.332360
0.329420
0.326490
0.323560
0.320630
0.317690
0.313780
0.310850
0.307920
0.305960
0.304010
0.301080
0.298140
0.294230
0.290320
0.286410
0.282500
0.278590
0.274680
0.270770
0.266860
0.263930
0.262950
0.262950
0.266860
0.274680
0.290320
0.313780
0.346040
0.384160
0.427170
0.472140
0.515150
0.554250
0.582600
0.604110
0.619750
0.630500
0.633430
0.631480
0.624630
0.613880
0.598240
0.580650
0.560120
0.537630
0.516130
0.494620
0.467250
0.436950
0.408600
0.383190
0.360700
0.340180
0.323560
0.310850
0.301080
0.295210
0.292280
0.291300
0.291300
0.292280
0.293260
0.295210
0.296190
0.296190
0.296190
0.296190
0.294230
0.293260
0.290320
0.288370
0.287390
0.285430
0.283480
0.281520
0.279570
0.276640
0.274680
0.272730
0.269790
0.266860
0.263930
0.261000
0.258060
0.256110
0.252200
0.249270
0.244380
0.240470
0.237540
0.236560
0.238510
0.244380
0.257090
0.276640
0.299120
0.325510
0.359730
0.398830
0.439880
0.479960
0.515150
0.545450
0.567940
0.582600
0.589440
0.590420
0.586510
0.578690
0.565980
0.550340
0.531770
0.511240
0.489740
0.466280
0.441840
0.418380
0.394920
0.373410
0.353860
0.338220
0.327470
0.316720
0.308900
0.302050
0.298140
0.295210
0.293260
0.293260
0.292280
0.292280
0.292280
0.293260
0.294230
0.294230
0.294230
0.293260
0.291300
0.290320
0.288370
0.286410
0.285430
0.283480
0.281520
0.279570
0.278590
0.276640
0.274680
0.272730
0.269790
0.266860
0.263930
0.261000
0.257090
0.254150
0.251220
0.248290
0.246330
0.245360
0.245360
0.249270
0.259040
0.275660
0.300100
0.331380
0.369500
0.410560
0.452590
0.493650
0.529810
0.556210
0.575760
0.590420
0.599220
0.602150
0.599220
0.592380
0.580650
0.565980
0.548390
0.528840
0.507330
0.486800
0.467250
0.444770
0.421310
0.398830
0.378300
0.359730
0.344090
0.331380
0.321600
0.314760
0.309870
0.306940
0.304990
0.304990
0.304990
0.305960
0.306940
0.306940
0.307920
0.307920
0.307920
0.307920
0.306940
0.304990
0.304010
0.303030
0.301080
0.299120
0.296190
0.294230
0.292280
0.290320
0.287390
0.284460
0.281520
0.277610
0.274680
0.271750
0.269790
0.266860
0.262950
0.259040
0.256110
0.254150
0.255130
0.261000
0.271750
0.290320
0.316720
0.345060
0.376340
0.414470
0.455520
0.496580
0.534700
0.566960
0.591400
0.608990
0.618770
0.621700
0.619750
0.612900
0.603130
0.591400
0.575760
0.558160
0.537630
0.516130
0.493650
0.470190
0.446730
0.424240
0.403710
0.384160
0.369500
0.358750
0.348000
0.340180
0.334310
0.330400
0.328450
0.328450
0.328450
0.329420
0.330400
0.331380
0.332360
0.332360
0.333330
0.333330
0.333330
0.332360
0.331380
0.330400
0.328450
0.326490
0.325510
0.323560
0.320630
0.319650
0.317690
0.315740
0.313780
0.310850
0.307920
0.304010
0.301080
0.297170
0.293260
0.290320
0.287390
0.286410
0.288370
0.293260
0.303030
0.319650
0.344090
0.376340
0.415440
0.458460
0.528840
0.613880
0.677420
0.724340
0.756600
0.776150
0.790810
0.797650
0.797650
0.792770
0.782990
0.768330
0.749760
0.728250
0.703810
0.676440
0.647120
0.620720
0.595310
0.566960
0.537630
0.509290
0.482890
0.460410
0.441840
0.427170
0.417400
0.410560
0.405670
0.403710
0.403710
0.404690
0.405670
0.406650
0.407620
0.408600
0.408600
0.408600
0.407620
0.405670
0.404690
0.404690
0.403710
0.402740
0.400780
0.398830
0.396870
0.392960
0.389050
0.385140
0.379280
0.373410
0.368520
0.363640
0.360700
0.356790
0.352880
0.348970
0.344090
0.341150
0.342130
0.347020
0.360700
0.383190
0.415440
0.456500
0.497560
0.540570
0.589440
0.640270
0.688170
0.728250
0.760510
0.782990
0.797650
0.803520
0.803520
0.797650
0.786900
0.774190
0.759530
0.739980
0.718480
0.693060
0.665690
0.636360
0.605080
0.573800
0.543500
0.514170
0.486800
0.465300
0.447700
0.432060
0.418380
0.408600
0.400780
0.396870
0.393940
0.392960
0.392960
0.391980
0.391010
0.390030
0.389050
0.388070
0.385140
0.382210
0.378300
0.373410
0.369500
0.365590
0.361680
0.357770
0.353860
0.348970
0.346040
0.343110
0.339200
0.335290
0.330400
0.325510
0.320630
0.315740
0.309870
0.304990
0.300100
0.297170
0.297170
0.299120
0.306940
0.320630
0.343110
0.374390
0.413490
0.458460
0.507330
0.555230
0.600200
0.638320
0.668620
0.688170
0.698920
0.704790
0.704790
0.698920
0.688170
0.672530
0.653960
0.632450
0.607040
0.579670
0.549360
0.519060
0.490710
0.466280
0.438910
0.411530
0.386120
0.363640
0.344090
0.329420
0.316720
0.307920
0.302050
0.299120
0.298140
0.299120
0.300100
0.302050
0.304010
0.305960
0.307920
0.308900
0.309870
0.308900
0.307920
0.306940
0.304990
0.304010
0.304010
0.303030
0.301080
0.300100
0.298140
0.296190
0.295210
0.293260
0.291300
0.289350
0.286410
0.285430
0.284460
0.282500
0.279570
0.277610
0.276640
0.279570
0.286410
0.301080
0.322580
0.352880
0.391010
0.434020
0.474100
0.512220
0.553270
0.591400
0.624630
0.651030
0.667640
0.676440
0.678400
0.673510
0.663730
0.649070
0.633430
0.615840
0.594330
0.570870
0.544480
0.517110
0.489740
0.463340
0.437930
0.415440
0.395890
0.380250
0.367550
0.358750
0.353860
0.348970
0.345060
0.343110
0.342130
0.342130
0.341150
0.341150
0.341150
0.341150
0.342130
0.342130
0.343110
0.342130
0.341150
0.340180
0.338220
0.336270
0.334310
0.331380
0.328450
0.325510
0.322580
0.319650
0.317690
0.315740
0.305960
0.292280
0.283480
0.277610
0.272730
0.268820
0.265880
0.262950
0.261000
0.262950
0.268820
0.278590
0.295210
0.320630
0.352880
0.391010
0.433040
0.475070
0.516130
0.552300
0.581620
0.604110
0.617790
0.624630
0.626590
0.622680
0.615840
0.604110
0.589440
0.570870
0.550340
0.527860
0.503420
0.478980
0.453570
0.432060
0.413490
0.393940
0.376340
0.359730
0.347020
0.337240
0.329420
0.325510
0.322580
0.320630
0.320630
0.320630
0.321600
0.322580
0.323560
0.323560
0.323560
0.322580
0.320630
0.318670
0.317690
0.315740
0.314760
0.313780
0.313780
0.313780
0.311830
0.310850
0.307920
0.304990
0.303030
0.300100
0.297170
0.294230
0.292280
0.288370
0.286410
0.284460
0.282500
0.280550
0.279570
0.283480
0.291300
0.306940
0.329420
0.359730
0.397850
0.439880
0.484850
0.524930
0.558160
0.592380
0.622680
0.647120
0.662760
0.671550
0.673510
0.670580
0.661780
0.650050
0.634410
0.617790
0.601170
0.580650
0.557180
0.532750
0.507330
0.481920
0.458460
0.435970
0.417400
0.400780
0.388070
0.378300
0.371460
0.367550
0.365590
0.364610
0.365590
0.366570
0.368520
0.370480
0.371460
0.372430
0.373410
0.373410
0.373410
0.373410
0.372430
0.370480
0.368520
0.366570
0.364610
0.362660
0.360700
0.359730
0.357770
0.355820
0.352880
0.350930
0.349950
0.347020
0.343110
0.340180
0.336270
0.332360
0.329420
0.326490
0.326490
0.331380
0.342130
0.357770
0.378300
0.408600
0.446730
0.491690
0.540570
0.588470
0.632450
0.670580
0.701860
0.724340
0.739000
0.745850
0.745850
0.741940
0.733140
0.721410
0.705770
0.687190
0.666670
0.643210
0.618770
0.592380
0.565000
0.537630
0.514170
0.492670
0.471160
0.452590
0.435970
0.422290
0.412510
0.405670
0.401760
0.400780
0.400780
0.402740
0.404690
0.406650
0.407620
0.408600
0.409580
0.409580
0.409580
0.408600
0.407620
0.405670
0.404690
0.402740
0.399800
0.397850
0.395890
0.392960
0.391010
0.390030
0.388070
0.386120
0.385140
0.383190
0.380250
0.377320
0.373410
0.368520
0.365590
0.363640
0.362660
0.366570
0.377320
0.395890
0.423260
0.459430
0.502440
0.551320
0.601170
0.649070
0.687190
0.716520
0.742910
0.763440
0.776150
0.782990
0.782990
0.778100
0.769310
0.756600
0.739980
0.720430
0.700880
0.681330
0.656890
0.630500
0.603130
0.575760
0.548390
0.521990
0.497560
0.476050
0.457480
0.442820
0.431090
0.423260
0.417400
0.413490
0.411530
0.409580
0.407620
0.406650
0.404690
0.403710
0.397850
0.390030
0.384160
0.380250
0.377320
0.373410
0.369500
0.365590
0.360700
0.356790
0.351910
0.348000
0.344090
0.339200
0.334310
0.329420
0.325510
0.322580
0.318670
0.313780
0.309870
0.304990
0.301080
0.299120
0.298140
0.302050
0.311830
0.329420
0.349950
0.374390
0.408600
0.447700
0.490710
0.533720
0.572830
0.607040
0.634410
0.653960
0.665690
0.671550
0.669600
0.664710
0.654940
0.642230
0.626590
0.608020
0.586510
0.563050
0.538610
0.512220
0.485830
0.460410
0.435970
0.415440
0.398830
0.383190
0.368520
0.356790
0.348000
0.341150
0.337240
0.334310
0.333330
0.332360
0.332360
0.332360
0.332360
0.333330
0.332360
0.331380
0.329420
0.327470
0.325510
0.323560
0.320630
0.318670
0.316720
0.314760
0.312810
0.310850
0.308900
0.305960
0.303030
0.300100
0.296190
0.293260
0.289350
0.284460
0.280550
0.276640
0.272730
0.270770
0.271750
0.275660
0.283480
0.297170
0.318670
0.348000
0.383190
0.423260
0.465300
0.506350
0.543500
0.571850
0.593350
0.609970
0.620720
0.625610
0.624630
0.617790
0.608020
0.593350
0.576740
0.556210
0.534700
0.510260
0.488760
0.467250
0.443790
0.420330
0.397850
0.377320
0.358750
0.344090
0.333330
0.324540
0.319650
0.316720
0.315740
0.315740
0.315740
0.316720
0.317690
0.318670
0.318670
0.318670
0.317690
0.316720
0.314760
0.312810
0.310850
0.308900
0.306940
0.304990
0.303030
0.301080
0.298140
0.296190
0.293260
0.290320
0.287390
0.284460
0.281520
0.278590
0.277610
0.274680
0.271750
0.268820
0.265880
0.263930
0.264910
0.269790
0.280550
0.298140
0.322580
0.355820
0.388070
0.421310
0.459430
0.499510
0.537630
0.570870
0.597260
0.615840
0.627570
0.631480
0.629520
0.621700
0.610950
0.599220
0.582600
0.563050
0.542520
0.519060
0.494620
0.469210
0.444770
0.421310
0.399800
0.380250
0.363640
0.351910
0.342130
0.334310
0.327470
0.322580
0.318670
0.314760
0.311830
0.308900
0.306940
0.304990
0.303030
0.302050
0.302050
0.301080
0.300100
0.299120
0.298140
0.297170
0.297170
0.296190
0.296190
0.295210
0.294230
0.294230
0.294230
0.293260
0.292280
0.291300
0.289350
0.287390
0.285430
0.282500
0.279570
0.277610
0.275660
0.275660
0.277610
0.284460
0.296190
0.315740
0.344090
0.378300
0.419350
0.463340
0.508310
0.551320
0.588470
0.618770
0.639300
0.652000
0.659820
0.661780
0.658850
0.650050
0.638320
0.622680
0.603130
0.582600
0.559140
0.534700
0.509290
0.486800
0.465300
0.442820
0.425220
0.408600
0.391010
0.375370
0.362660
0.353860
0.347020
0.343110
0.341150
0.340180
0.341150
0.343110
0.345060
0.346040
0.348000
0.348970
0.349950
0.349950
0.349950
0.348970
0.348000
0.347020
0.346040
0.345060
0.343110
0.341150
0.339200
0.337240
0.334310
0.331380
0.328450
0.325510
0.323560
0.320630
0.318670
0.315740
0.312810
0.309870
0.307920
0.308900
0.313780
0.326490
0.348970
0.380250
0.421310
0.470190
0.524930
0.573800
0.617790
0.663730
0.705770
0.740960
0.767350
0.783970
0.792770
0.792770
0.786900
0.775170
0.759530
0.740960
0.721410
0.696970
0.669600
0.640270
0.609970
0.577710
0.545450
0.515150
0.486800
0.461390
0.439880
0.422290
0.410560
0.401760
0.395890
0.391010
0.389050
0.388070
0.389050
0.390030
0.391010
0.391980
0.393940
0.394920
0.394920
0.393940
0.391980
0.390030
0.387100
0.384160
0.381230
0.378300
0.375370
0.372430
0.369500
0.365590
0.361680
0.358750
0.355820
0.351910
0.348000
0.343110
0.337240
0.332360
0.328450
0.325510
0.325510
0.330400
0.342130
0.358750
0.382210
0.416420
0.462370
0.515150
0.571850
0.629520
0.683280
0.730210
0.768330
0.797650
0.817200
0.826980
0.828930
0.825020
0.816230
0.803520
0.786900
0.766370
0.742910
0.716520
0.686220
0.654940
0.620720
0.586510
0.557180
0.529810
0.502440
0.476050
0.452590
0.433040
0.417400
0.405670
0.397850
0.392960
0.390030
0.389050
0.389050
0.389050
0.389050
0.389050
0.388070
0.386120
0.384160
0.380250
0.376340
0.372430
0.368520
0.363640
0.358750
0.354840
0.351910
0.347020
0.343110
0.337240
0.332360
0.326490
0.320630
0.314760
0.308900
0.303030
0.297170
0.290320
0.286410
0.283480
0.281520
0.283480
0.291300
0.307920
0.335290
0.372430
0.418380
0.471160
0.526880
0.581620
0.625610
0.660800
0.692080
0.716520
0.733140
0.739980
0.739980
0.732160
0.720430
0.702830
0.682310
0.658850
0.635390
0.611930
0.583580
0.552300
0.520040
0.486800
0.454550
0.424240
0.396870
0.373410
0.352880
0.337240
0.326490
0.319650
0.316720
0.314760
0.313780
0.313780
0.314760
0.315740
0.316720
0.316720
0.316720
0.316720
0.314760
0.313780
0.311830
0.309870
0.307920
0.305960
0.303030
0.301080
0.298140
0.294230
0.290320
0.286410
0.281520
0.277610
0.274680
0.271750
0.268820
0.264910
0.261000
0.257090
0.253180
0.251220
0.251220
0.257090
0.268820
0.289350
0.314760
0.345060
0.386120
0.434020
0.485830
0.536660
0.583580
0.624630
0.655910
0.678400
0.673510
0.652000
0.636360
0.622680
0.608990
0.592380
0.572830
0.551320
0.527860
0.502440
0.476050
0.449660
0.424240
0.399800
0.378300
0.360700
0.346040
0.333330
0.322580
0.313780
0.306940
0.302050
0.299120
0.297170
0.297170
0.298140
0.299120
0.300100
0.302050
0.303030
0.303030
0.303030
0.302050
0.301080
0.299120
0.297170
0.295210
0.293260
0.290320
0.287390
0.285430
0.284460
0.282500
0.279570
0.276640
0.273700
0.269790
0.266860
0.262950
0.259040
0.255130
0.252200
0.249270
0.249270
0.252200
0.258060
0.269790
0.288370
0.313780
0.347020
0.386120
0.429130
0.472140
0.514170
0.550340
0.577710
0.596290
0.609970
0.616810
0.617790
0.611930
0.601170
0.586510
0.567940
0.545450
0.521990
0.496580
0.469210
0.445750
0.424240
0.400780
0.378300
0.357770
0.339200
0.323560
0.310850
0.301080
0.294230
0.290320
0.287390
0.287390
0.288370
0.290320
0.292280
0.294230
0.296190
0.297170
0.298140
0.298140
0.298140
0.298140
0.298140
0.298140
0.298140
0.299120
0.299120
0.299120
0.299120
0.298140
0.298140
0.298140
0.297170
0.296190
0.295210
0.293260
0.292280
0.291300
0.289350
0.286410
0.284460
0.284460
0.286410
0.292280
0.304010
0.323560
0.351910
0.388070
0.430110
0.470190
0.508310
0.550340
0.591400
0.626590
0.654940
0.675460
0.688170
0.693060
0.691100
0.684260
0.673510
0.659820
0.645160
0.626590
0.605080
0.581620
0.556210
0.529810
0.503420
0.478010
0.453570
0.431090
0.411530
0.396870
0.386120
0.377320
0.370480
0.365590
0.362660
0.361680
0.361680
0.362660
0.364610
0.365590
0.366570
0.366570
0.366570
0.366570
0.365590
0.363640
0.361680
0.359730
0.357770
0.355820
0.353860
0.350930
0.348970
0.347020
0.346040
0.344090
0.342130
0.340180
0.337240
0.333330
0.329420
0.326490
0.322580
0.319650
0.318670
0.320630
0.326490
0.336270
0.350930
0.374390
0.406650
0.447700
0.493650
0.542520
0.590420
0.636360
0.675460
0.706740
0.729230
0.741940
0.746820
0.746820
0.741940
0.733140
0.719450
0.702830
0.683280
0.661780
0.637340
0.610950
0.583580
0.554250
0.528840
0.504400
0.479960
0.455520
0.434020
0.416420
0.400780
0.390030
0.381230
0.376340
0.373410
0.371460
0.371460
0.371460
0.372430
0.372430
0.372430
0.372430
0.371460
0.369500
0.367550
0.364610
0.361680
0.357770
0.354840
0.351910
0.348970
0.345060
0.341150
0.337240
0.332360
0.328450
0.323560
0.318670
0.313780
0.307920
0.303030
0.298140
0.294230
0.290320
0.286410
0.286410
0.290320
0.300100
0.316720
0.341150
0.373410
0.412510
0.456500
0.502440
0.540570
0.572830
0.604110
0.630500
0.649070
0.660800
0.664710
0.662760
0.654940
0.642230
0.625610
0.606060
0.585530
0.565000
0.540570
0.515150
0.487780
0.459430
0.433040
0.407620
0.384160
0.364610
0.347020
0.333330
0.323560
0.316720
0.312810
0.309870
0.307920
0.306940
0.306940
0.306940
0.306940
0.306940
0.305960
0.304990
0.304010
0.303030
0.302050
0.300100
0.297170
0.294230
0.292280
0.289350
0.286410
0.283480
0.280550
0.277610
0.274680
0.271750
0.269790
0.267840
0.264910
0.261970
0.259040
0.255130
0.251220
0.249270
0.248290
0.251220
0.258060
0.271750
0.290320
0.312810
0.346040
0.385140
0.429130
0.474100
0.516130
0.553270
0.584560
0.608020
0.622680
0.629520
0.630500
0.625610
0.616810
0.604110
0.588470
0.568910
0.547410
0.523950
0.498530
0.472140
0.446730
0.421310
0.396870
0.378300
0.361680
0.347020
0.334310
0.324540
0.317690
0.313780
0.311830
0.310850
0.310850
0.311830
0.312810
0.312810
0.314760
0.315740
0.316720
0.316720
0.316720
0.315740
0.314760
0.312810
0.310850
0.308900
0.306940
0.304010
0.302050
0.300100
0.298140
0.295210
0.292280
0.288370
0.284460
0.280550
0.276640
0.273700
0.269790
0.266860
0.263930
0.262950
0.262950
0.265880
0.273700
0.287390
0.309870
0.339200
0.375370
0.416420
0.460410
0.503420
0.543500
0.572830
0.595310
0.613880
0.625610
0.630500
0.628540
0.620720
0.608990
0.593350
0.574780
0.554250
0.530790
0.508310
0.487780
0.463340
0.437930
0.413490
0.390030
0.369500
0.350930
0.336270
0.325510
0.316720
0.310850
0.307920
0.306940
0.307920
0.308900
0.310850
0.311830
0.312810
0.313780
0.313780
0.313780
0.311830
0.309870
0.308900
0.306940
0.305960
0.304990
0.303030
0.301080
0.299120
0.297170
0.295210
0.292280
0.290320
0.287390
0.284460
0.281520
0.278590
0.276640
0.273700
0.270770
0.266860
0.263930
0.262950
0.264910
0.271750
0.285430
0.306940
0.337240
0.368520
0.401760
0.442820
0.486800
0.529810
0.567940
0.600200
0.624630
0.640270
0.648090
0.649070
0.644180
0.633430
0.620720
0.605080
0.586510
0.565000
0.541540
0.516130
0.489740
0.463340
0.436950
0.411530
0.388070
0.367550
0.351910
0.340180
0.330400
0.322580
0.316720
0.313780
0.311830
0.311830
0.312810
0.313780
0.315740
0.316720
0.318670
0.319650
0.320630
0.320630
0.319650
0.318670
0.317690
0.315740
0.314760
0.312810
0.310850
0.312810
0.315740
0.316720
0.316720
0.315740
0.313780
0.310850
0.307920
0.304990
0.301080
0.297170
0.293260
0.290320
0.288370
0.291300
0.297170
0.308900
0.329420
0.360700
0.401760
0.450640
0.505380
0.562070
0.615840
0.663730
0.704790
0.736070
0.755620
0.766370
0.771260
0.769310
0.760510
0.747800
0.730210
0.709680
0.686220
0.659820
0.630500
0.600200
0.568910
0.540570
0.514170
0.486800
0.460410
0.436950
0.417400
0.400780
0.389050
0.380250
0.375370
0.371460
0.370480
0.370480
0.371460
0.372430
0.373410
0.375370
0.376340
0.376340
0.376340
0.375370
0.374390
0.372430
0.370480
0.368520
0.366570
0.364610
0.362660
0.360700
0.357770
0.354840
0.351910
0.348000
0.345060
0.341150
0.338220
0.335290
0.333330
0.331380
0.329420
0.328450
0.329420
0.336270
0.348970
0.372430
0.404690
0.448680
0.500490
0.558160
0.608990
0.654940
0.703810
0.748780
0.785920
0.813290
0.831870
0.841640
0.843600
0.837730
0.826000
0.809380
0.788860
0.767350
0.744870
0.718480
0.690130
0.658850
0.625610
0.592380
0.560120
0.528840
0.500490
0.476050
0.454550
0.437930
0.426200
0.417400
0.410560
0.405670
0.403710
0.402740
0.401760
0.401760
0.401760
0.400780
0.399800
0.398830
0.397850
0.395890
0.393940
0.391010
0.388070
0.385140
0.382210
0.378300
0.374390
0.370480
0.365590
0.360700
0.356790
0.353860
0.348970
0.343110
0.337240
0.331380
0.325510
0.319650
0.315740
0.313780
0.315740
0.323560
0.341150
0.361680
0.389050
0.427170
0.473120
0.524930
0.577710
0.627570
0.671550
0.706740
0.732160
0.748780
0.754640
0.753670
0.746820
0.735090
0.719450
0.699900
0.677420
0.652000
0.622680
0.592380
0.560120
0.526880
0.493650
0.462370
0.436950
0.415440
0.393940
0.375370
0.359730
0.348000
0.341150
0.337240
0.336270
0.337240
0.340180
0.343110
0.346040
0.349950
0.351910
0.353860
0.354840
0.354840
0.352880
0.349950
0.347020
0.343110
0.339200
0.335290
0.330400
0.327470
0.325510
0.321600
0.317690
0.313780
0.308900
0.304010
0.299120
0.294230
0.289350
0.285430
0.280550
0.277610
0.275660
0.275660
0.279570
0.288370
0.305960
0.332360
0.368520
0.411530
0.460410
0.513200
0.564030
0.610950
0.646140
0.672530
0.694040
0.707720
0.714570
0.712610
0.703810
0.690130
0.671550
0.650050
0.624630
0.596290
0.570870
0.545450
0.516130
0.486800
0.456500
0.428150
0.402740
0.380250
0.361680
0.346040
0.334310
0.326490
0.321600
0.318670
0.317690
0.317690
0.319650
0.313780
0.303030
0.299120
0.297170
0.295210
0.294230
0.292280
0.290320
0.289350
0.288370
0.285430
0.282500
0.280550
0.277610
0.273700
0.269790
0.265880
0.261970
0.257090
0.252200
0.247310
0.242420
0.238510
0.234600
0.230690
0.225810
0.221900
0.219940
0.220920
0.226780
0.238510
0.258060
0.285430
0.314760
0.347020
0.387100
0.431090
0.475070
0.516130
0.550340
0.577710
0.596290
0.607040
0.609970
0.606060
0.597260
0.585530
0.571850
0.553270
0.532750
0.510260
0.485830
0.461390
0.435970
0.412510
0.390030
0.369500
0.351910
0.338220
0.328450
0.320630
0.313780
0.309870
0.307920
0.307920
0.308900
0.310850
0.313780
0.315740
0.316720
0.317690
0.318670
0.319650
0.319650
0.319650
0.318670
0.316720
0.315740
0.313780
0.312810
0.310850
0.309870
0.307920
0.305960
0.304010
0.302050
0.300100
0.298140
0.296190
0.293260
0.291300
0.289350
0.286410
0.284460
0.284460
0.285430
0.291300
0.302050
0.319650
0.347020
0.382210
0.424240
0.472140
0.521990
0.570870
0.615840
0.652980
0.683280
0.701860
0.711630
0.716520
0.715540
0.709680
0.699900
0.685240
0.667640
0.648090
0.624630
0.600200
0.572830
0.548390
0.524930
0.499510
0.473120
0.448680
0.427170
0.408600
0.392960
0.381230
0.372430
0.366570
0.363640
0.362660
0.363640
0.364610
0.366570
0.368520
0.370480
0.372430
0.373410
0.374390
0.374390
0.374390
0.373410
0.372430
0.372430
0.371460
0.369500
0.367550
0.364610
0.360700
0.356790
0.351910
0.348000
0.343110
0.339200
0.335290
0.330400
0.326490
0.323560
0.319650
0.316720
0.315740
0.318670
0.327470
0.343110
0.366570
0.399800
0.439880
0.485830
0.527860
0.565980
0.606060
0.644180
0.676440
0.700880
0.716520
0.724340
0.726300
0.721410
0.711630
0.696970
0.679370
0.660800
0.641250
0.617790
0.592380
0.564030
0.535680
0.507330
0.478980
0.452590
0.428150
0.406650
0.388070
0.374390
0.364610
0.356790
0.350930
0.347020
0.344090
0.343110
0.343110
0.343110
0.342130
0.341150
0.339200
0.336270
0.334310
0.331380
0.327470
0.323560
0.319650
0.315740
0.310850
0.305960
0.301080
0.296190
0.291300
0.285430
0.281520
0.278590
0.274680
0.269790
0.264910
0.260020
0.255130
0.250240
0.245360
0.241450
0.240470
0.244380
0.256110
0.271750
0.293260
0.325510
0.364610
0.409580
0.456500
0.503420
0.545450
0.580650
0.607040
0.625610
0.635390
0.638320
0.634410
0.626590
0.613880
0.598240
0.578690
0.557180
0.532750
0.507330
0.480940
0.453570
0.433040
0.417400
0.400780
0.386120
0.369500
0.355820
0.344090
0.335290
0.330400
0.327470
0.327470
0.328450
0.329420
0.331380
0.333330
0.335290
0.337240
0.337240
0.337240
0.337240
0.335290
0.333330
0.331380
0.329420
0.327470
0.325510
0.323560
0.321600
0.320630
0.318670
0.315740
0.311830
0.308900
0.305960
0.302050
0.298140
0.295210
0.291300
0.287390
0.284460
0.282500
0.281520
0.282500
0.288370
0.300100
0.318670
0.346040
0.381230
0.421310
0.466280
0.510260
0.547410
0.578690
0.607040
0.630500
0.646140
0.654940
0.655910
0.651030
0.641250
0.626590
0.608020
0.587490
0.565000
0.543500
0.521990
0.497560
0.472140
0.446730
0.422290
0.400780
0.381230
0.365590
0.352880
0.342130
0.335290
0.331380
0.330400
0.329420
0.330400
0.331380
0.332360
0.332360
0.332360
0.332360
0.332360
0.331380
0.329420
0.328450
0.327470
0.326490
0.325510
0.324540
0.322580
0.320630
0.319650
0.317690
0.314760
0.312810
0.309870
0.306940
0.304990
0.302050
0.299120
0.296190
0.292280
0.288370
0.285430
0.283480
0.283480
0.288370
0.298140
0.314760
0.340180
0.367550
0.398830
0.437930
0.481920
0.525900
0.567940
0.603130
0.631480
0.652000
0.664710
0.668620
0.665690
0.658850
0.648090
0.632450
0.613880
0.592380
0.567940
0.541540
0.514170
0.486800
0.459430
0.434020
0.409580
0.388070
0.371460
0.358750
0.347020
0.338220
0.331380
0.327470
0.325510
0.324540
0.324540
0.325510
0.325510
0.326490
0.327470
0.327470
0.328450
0.327470
0.326490
0.324540
0.322580
0.320630
0.318670
0.316720
0.313780
0.311830
0.308900
0.306940
0.305960
0.304010
0.301080
0.298140
0.294230
0.291300
0.288370
0.284460
0.281520
0.278590
0.276640
0.277610
0.280550
0.287390
0.301080
0.322580
0.351910
0.389050
0.432060
0.478980
0.525900
0.568910
0.607040
0.637340
0.656890
0.667640
0.673510
0.673510
0.667640
0.656890
0.643210
0.626590
0.608020
0.587490
0.565000
0.540570
0.518080
0.497560
0.474100
0.450640
0.429130
0.409580
0.392960
0.380250
0.370480
0.363640
0.359730
0.357770
0.358750
0.359730
0.361680
0.364610
0.367550
0.370480
0.372430
0.374390
0.375370
0.375370
0.375370
0.375370
0.375370
0.374390
0.374390
0.373410
0.372430
0.371460
0.370480
0.369500
0.367550
0.365590
0.363640
0.361680
0.359730
0.356790
0.354840
0.351910
0.348000
0.345060
0.343110
0.345060
0.351910
0.366570
0.391010
0.423260
0.465300
0.513200
0.557180
0.598240
0.642230
0.684260
0.720430
0.743890
0.757580
0.765400
0.768330
0.765400
0.758550
0.747800
0.734120
0.718480
0.698920
0.676440
0.652000
0.623660
0.594330
0.565000
0.534700
0.506350
0.479960
0.456500
0.435970
0.420330
0.407620
0.397850
0.390030
0.385140
0.381230
0.380250
0.380250
0.380250
0.381230
0.381230
0.381230
0.380250
0.379280
0.376340
0.373410
0.370480
0.367550
0.364610
0.360700
0.356790
0.353860
0.349950
0.346040
0.343110
0.340180
0.337240
0.333330
0.330400
0.326490
0.321600
0.316720
0.311830
0.306940
0.304010
0.303030
0.305960
0.313780
0.327470
0.349950
0.381230
0.421310
0.467250
0.515150
0.563050
0.607040
0.644180
0.673510
0.693060
0.704790
0.708700
0.706740
0.699900
0.688170
0.673510
0.654940
0.634410
0.610950
0.584560
0.557180
0.528840
0.499510
0.474100
0.449660
0.425220
0.402740
0.381230
0.363640
0.349950
0.339200
0.332360
0.327470
0.325510
0.324540
0.325510
0.326490
0.327470
0.327470
0.327470
0.327470
0.325510
0.323560
0.321600
0.317690
0.314760
0.310850
0.306940
0.304990
0.302050
0.300100
0.296190
0.292280
0.288370
0.283480
0.279570
0.275660
0.270770
0.265880
0.261970
0.257090
0.253180
0.251220
0.249270
0.248290
0.251220
0.260020
0.276640
0.301080
0.334310
0.374390
0.419350
0.465300
0.505380
0.538610
0.570870
0.597260
0.615840
0.626590
0.629520
0.626590
0.617790
0.603130
0.585530
0.565980
0.542520
0.521020
0.499510
0.474100
0.447700
0.420330
0.393940
0.368520
0.346040
0.327470
0.312810
0.301080
0.292280
0.287390
0.285430
0.284460
0.284460
0.284460
0.285430
0.286410
0.286410
0.287390
0.287390
0.287390
0.287390
0.286410
0.285430
0.284460
0.283480
0.282500
0.282500
0.281520
0.279570
0.278590
0.276640
0.273700
0.269790
0.266860
0.263930
0.261970
0.259040
0.255130
0.250240
0.246330
0.242420
0.239490
0.238510
0.240470
0.247310
0.261000
0.282500
0.306940
0.335290
0.373410
0.417400
0.463340
0.507330
0.546430
0.578690
0.602150
0.617790
0.625610
0.625610
0.620720
0.610950
0.598240
0.581620
0.563050
0.540570
0.516130
0.490710
0.464320
0.435970
0.408600
0.383190
0.359730
0.342130
0.328450
0.315740
0.306940
0.300100
0.295210
0.293260
0.293260
0.294230
0.296190
0.298140
0.300100
0.302050
0.304010
0.304990
0.304990
0.304990
0.304010
0.303030
0.301080
0.299120
0.297170
0.295210
0.293260
0.292280
0.290320
0.288370
0.285430
0.282500
0.280550
0.277610
0.274680
0.270770
0.266860
0.263930
0.261000
0.261000
0.264910
0.268820
0.273700
0.284460
0.302050
0.326490
0.359730
0.398830
0.442820
0.488760
0.532750
0.572830
0.602150
0.623660
0.640270
0.652000
0.655910
0.653960
0.647120
0.635390
0.619750
0.602150
0.580650
0.558160
0.533720
0.511240
0.489740
0.465300
0.441840
0.418380
0.396870
0.377320
0.361680
0.349950
0.341150
0.334310
0.331380
0.329420
0.329420
0.330400
0.332360
0.333330
0.335290
0.336270
0.337240
0.337240
0.337240
0.335290
0.334310
0.332360
0.331380
0.329420
0.327470
0.325510
0.321600
0.318670
0.314760
0.311830
0.307920
0.303030
0.299120
0.295210
0.292280
0.289350
0.286410
0.281520
0.277610
0.273700
0.270770
0.271750
0.277610
0.290320
0.311830
0.342130
0.380250
0.417400
0.455520
0.499510
0.543500
0.583580
0.616810
0.642230
0.659820
0.668620
0.670580
0.666670
0.656890
0.646140
0.632450
0.614860
0.595310
0.572830
0.549360
0.523950
0.496580
0.470190
0.445750
0.422290
0.400780
0.383190
0.370480
0.360700
0.352880
0.347020
0.343110
0.342130
0.342130
0.343110
0.345060
0.348000
0.350930
0.352880
0.353860
0.355820
0.355820
0.355820
0.354840
0.353860
0.352880
0.350930
0.348970
0.347020
0.345060
0.343110
0.340180
0.338220
0.335290
0.333330
0.329420
0.326490
0.322580
0.319650
0.315740
0.312810
0.309870
0.308900
0.311830
0.316720
0.327470
0.346040
0.373410
0.409580
0.453570
0.502440
0.552300
0.600200
0.643210
0.678400
0.705770
0.724340
0.734120
0.737050
0.735090
0.729230
0.720430
0.707720
0.692080
0.673510
0.652000
0.628540
0.603130
0.575760
0.551320
0.528840
0.503420
0.478980
0.456500
0.436950
0.420330
0.407620
0.397850
0.391010
0.386120
0.382210
0.381230
0.380250
0.380250
0.381230
0.381230
0.382210
0.382210
0.381230
0.380250
0.378300
0.376340
0.374390
0.371460
0.369500
0.367550
0.364610
0.360700
0.357770
0.354840
0.350930
0.348000
0.344090
0.339200
0.334310
0.329420
0.324540
0.320630
0.316720
0.314760
0.312810
0.314760
0.321600
0.336270
0.358750
0.390030
0.429130
0.474100
0.521990
0.562070
0.597260
0.631480
0.661780
0.684260
0.699900
0.707720
0.708700
0.704790
0.695010
0.682310
0.665690
0.649070
0.630500
0.608020
0.582600
0.555230
0.525900
0.497560
0.469210
0.442820
0.417400
0.395890
0.377320
0.361680
0.350930
0.343110
0.338220
0.334310
0.332360
0.332360
0.332360
0.332360
0.332360
0.331380
0.330400
0.329420
0.327470
0.326490
0.323560
0.320630
0.316720
0.312810
0.304990
0.294230
0.287390
0.281520
0.276640
0.271750
0.266860
0.261970
0.258060
0.253180
0.248290
0.242420
0.236560
0.230690
0.225810
0.221900
0.219940
0.221900
0.230690
0.243400
0.261970
0.290320
0.327470
0.370480
0.418380
0.465300
0.510260
0.549360
0.580650
0.603130
0.616810
0.622680
0.622680
0.617790
0.608020
0.594330
0.576740
0.557180
0.534700
0.510260
0.484850
0.457480
0.430110
0.402740
0.380250
0.360700
0.342130
0.325510
0.310850
0.300100
0.293260
0.288370
0.285430
0.284460
0.285430
0.286410
0.287390
0.288370
0.289350
0.290320
0.291300
0.291300
0.290320
0.288370
0.286410
0.284460
0.282500
0.280550
0.277610
0.276640
0.274680
0.272730
0.269790
0.266860
0.262950
0.260020
0.257090
0.253180
0.250240
0.246330
0.242420
0.239490
0.237540
0.236560
0.236560
0.240470
0.249270
0.265880
0.290320
0.322580
0.362660
0.407620
0.454550
0.501470
0.538610
0.567940
0.595310
0.615840
0.628540
0.633430
0.631480
0.624630
0.611930
0.595310
0.574780
0.552300
0.526880
0.502440
0.478980
0.452590
0.425220
0.397850
0.372430
0.348970
0.329420
0.313780
0.301080
0.291300
0.284460
0.281520
0.280550
0.279570
0.279570
0.280550
0.282500
0.284460
0.285430
0.286410
0.287390
0.288370
0.289350
0.289350
0.289350
0.289350
0.289350
0.289350
0.288370
0.286410
0.284460
0.282500
0.280550
0.277610
0.275660
0.272730
0.270770
0.269790
0.267840
0.264910
0.261970
0.259040
0.256110
0.255130
0.257090
0.263930
0.278590
0.301080
0.331380
0.364610
0.398830
0.442820
0.488760
0.534700
0.575760
0.609970
0.635390
0.652980
0.660800
0.661780
0.656890
0.647120
0.634410
0.617790
0.598240
0.575760
0.551320
0.524930
0.496580
0.468230
0.439880
0.414470
0.390030
0.371460
0.355820
0.342130
0.331380
0.323560
0.318670
0.316720
0.315740
0.316720
0.318670
0.320630
0.322580
0.323560
0.324540
0.325510
0.325510
0.324540
0.322580
0.320630
0.317690
0.313780
0.309870
0.305960
0.301080
0.296190
0.293260
0.290320
0.287390
0.285430
0.286410
0.291300
0.300100
0.314760
0.334310
0.359730
0.388070
0.419350
0.450640
0.476050
0.496580
0.515150
0.528840
0.537630
0.538610
0.534700
0.523950
0.509290
0.489740
0.467250
0.442820
0.421310
0.400780
0.378300
0.356790
0.338220
0.321600
0.307920
0.298140
0.290320
0.285430
0.282500
0.281520
0.281520
0.282500
0.284460
0.286410
0.288370
0.290320
0.291300
0.292280
0.292280
0.292280
0.291300
0.290320
0.290320
0.300100
0.315740
0.322580
0.325510
0.326490
0.325510
0.324540
0.322580
0.320630
0.319650
0.318670
0.318670
0.318670
0.318670
0.319650
0.320630
0.321600
0.322580
0.323560
0.323560
0.324540
0.325510
0.325510
0.324540
0.323560
0.322580
0.322580
0.323560
0.328450
0.338220
0.356790
0.387100
0.428150
0.480940
0.542520
0.608990
0.675460
0.738030
0.786900
0.824050
0.858260
0.883680
0.901270
0.910070
0.911050
0.905180
0.894430
0.878790
0.860220
0.837730
0.815250
0.790810
0.762460
0.730210
0.696970
0.662760
0.628540
0.596290
0.566960
0.540570
0.517110
0.499510
0.484850
0.475070
0.468230
0.463340
0.460410
0.459430
0.460410
0.461390
0.463340
0.465300
0.465300
0.465300
0.464320
0.462370
0.459430
0.455520
0.451610
0.445750
0.440860
0.435970
0.431090
0.426200
0.421310
0.416420
0.410560
0.405670
0.400780
0.395890
0.390030
0.384160
0.377320
0.371460
0.365590
0.361680
0.360700
0.363640
0.374390
0.393940
0.418380
0.448680
0.491690
0.543500
0.600200
0.657870
0.711630
0.757580
0.795700
0.823070
0.841640
0.850440
0.851420
0.846530
0.836750
0.823070
0.805470
0.784950
0.760510
0.733140
0.703810
0.671550
0.637340
0.602150
0.567940
0.537630
0.511240
0.483870
0.459430
0.437930
0.420330
0.406650
0.397850
0.391010
0.388070
0.385140
0.384160
0.383190
0.382210
0.382210
0.381230
0.379280
0.377320
0.374390
0.370480
0.366570
0.362660
0.358750
0.353860
0.348970
0.345060
0.341150
0.337240
0.332360
0.327470
0.321600
0.316720
0.310850
0.305960
0.300100
0.294230
0.288370
0.283480
0.280550
0.279570
0.281520
0.289350
0.304990
0.329420
0.364610
0.408600
0.458460
0.511240
0.564030
0.611930
0.649070
0.676440
0.698920
0.714570
0.721410
0.721410
0.713590
0.700880
0.683280
0.661780
0.636360
0.608990
0.582600
0.556210
0.526880
0.494620
0.462370
0.432060
0.403710
0.378300
0.356790
0.340180
0.326490
0.317690
0.311830
0.309870
0.308900
0.308900
0.309870
0.310850
0.310850
0.310850
0.311830
0.311830
0.310850
0.309870
0.308900
0.308900
0.307920
0.305960
0.304010
0.301080
0.298140
0.296190
0.293260
0.290320
0.286410
0.282500
0.277610
0.272730
0.269790
0.266860
0.263930
0.259040
0.255130
0.251220
0.248290
0.248290
0.253180
0.263930
0.283480
0.312810
0.344090
0.379280
0.424240
0.475070
0.526880
0.574780
0.616810
0.650050
0.673510
0.687190
0.692080
0.689150
0.679370
0.666670
0.651030
0.631480
0.607040
0.581620
0.553270
0.509290
0.459430
0.423260
0.395890
0.373410
0.354840
0.340180
0.330400
0.321600
0.313780
0.308900
0.305960
0.304990
0.304990
0.305960
0.306940
0.308900
0.309870
0.310850
0.311830
0.311830
0.311830
0.310850
0.309870
0.307920
0.305960
0.304010
0.303030
0.302050
0.300100
0.299120
0.298140
0.297170
0.295210
0.293260
0.291300
0.288370
0.285430
0.282500
0.279570
0.276640
0.273700
0.271750
0.271750
0.273700
0.279570
0.289350
0.306940
0.331380
0.361680
0.397850
0.436950
0.477030
0.514170
0.547410
0.573800
0.591400
0.602150
0.608020
0.608990
0.604110
0.595310
0.583580
0.567940
0.550340
0.530790
0.509290
0.486800
0.463340
0.442820
0.424240
0.404690
0.387100
0.370480
0.356790
0.345060
0.337240
0.331380
0.327470
0.325510
0.324540
0.324540
0.325510
0.326490
0.327470
0.327470
0.327470
0.326490
0.325510
0.323560
0.321600
0.320630
0.318670
0.316720
0.315740
0.314760
0.313780
0.311830
0.309870
0.306940
0.304990
0.302050
0.298140
0.295210
0.292280
0.288370
0.286410
0.284460
0.281520
0.278590
0.277610
0.277610
0.281520
0.291300
0.307920
0.332360
0.363640
0.400780
0.435970
0.469210
0.507330
0.542520
0.573800
0.598240
0.614860
0.624630
0.628540
0.626590
0.619750
0.608990
0.595310
0.580650
0.564030
0.545450
0.522970
0.499510
0.475070
0.449660
0.426200
0.403710
0.384160
0.366570
0.352880
0.343110
0.337240
0.332360
0.329420
0.329420
0.330400
0.332360
0.334310
0.337240
0.339200
0.341150
0.342130
0.343110
0.344090
0.344090
0.344090
0.343110
0.342130
0.341150
0.340180
0.338220
0.337240
0.335290
0.333330
0.331380
0.329420
0.327470
0.324540
0.322580
0.319650
0.316720
0.312810
0.308900
0.305960
0.304990
0.305960
0.312810
0.325510
0.342130
0.363640
0.393940
0.432060
0.474100
0.519060
0.562070
0.602150
0.635390
0.660800
0.679370
0.691100
0.695010
0.694040
0.689150
0.681330
0.670580
0.656890
0.640270
0.621700
0.601170
0.577710
0.553270
0.527860
0.502440
0.480940
0.460410
0.440860
0.422290
0.406650
0.393940
0.384160
0.377320
0.373410
0.371460
0.370480
0.370480
0.371460
0.371460
0.372430
0.372430
0.372430
0.372430
0.371460
0.370480
0.368520
0.366570
0.364610
0.362660
0.360700
0.359730
0.358750
0.357770
0.355820
0.354840
0.351910
0.349950
0.346040
0.342130
0.338220
0.334310
0.330400
0.326490
0.324540
0.324540
0.326490
0.334310
0.348000
0.370480
0.400780
0.437930
0.479960
0.524930
0.567940
0.607040
0.648090
0.686220
0.714570
0.732160
0.741940
0.743890
0.739980
0.731180
0.718480
0.702830
0.684260
0.662760
0.641250
0.618770
0.593350
0.565000
0.535680
0.505380
0.477030
0.449660
0.425220
0.402740
0.385140
0.370480
0.360700
0.353860
0.349950
0.348000
0.347020
0.347020
0.348000
0.348000
0.347020
0.346040
0.345060
0.342130
0.339200
0.336270
0.333330
0.329420
0.325510
0.321600
0.317690
0.312810
0.308900
0.304010
0.299120
0.295210
0.290320
0.285430
0.281520
0.277610
0.272730
0.267840
0.262950
0.258060
0.254150
0.253180
0.257090
0.267840
0.286410
0.313780
0.344090
0.377320
0.419350
0.466280
0.513200
0.556210
0.593350
0.621700
0.641250
0.652000
0.654940
0.651030
0.642230
0.630500
0.616810
0.598240
0.577710
0.553270
0.527860
0.500490
0.472140
0.442820
0.415440
0.388070
0.363640
0.344090
0.328450
0.314760
0.303030
0.295210
0.289350
0.287390
0.287390
0.288370
0.289350
0.291300
0.292280
0.294230
0.295210
0.296190
0.296190
0.295210
0.294230
0.293260
0.291300
0.289350
0.288370
0.286410
0.284460
0.281520
0.280550
0.278590
0.276640
0.273700
0.270770
0.266860
0.263930
0.260020
0.256110
0.252200
0.248290
0.245360
0.243400
0.244380
0.249270
0.259040
0.276640
0.303030
0.338220
0.379280
0.425220
0.472140
0.516130
0.556210
0.588470
0.609970
0.623660
0.631480
0.633430
0.629520
0.620720
0.607040
0.589440
0.568910
0.546430
0.521990
0.495600
0.471160
0.448680
0.423260
0.397850
0.374390
0.352880
0.335290
0.321600
0.310850
0.304010
0.299120
0.296190
0.296190
0.296190
0.298140
0.299120
0.301080
0.302050
0.302050
0.302050
0.301080
0.300100
0.298140
0.296190
0.294230
0.292280
0.290320
0.289350
0.287390
0.285430
0.283480
0.280550
0.277610
0.274680
0.271750
0.267840
0.263930
0.260020
0.257090
0.255130
0.252200
0.249270
0.247310
0.246330
0.249270
0.257090
0.271750
0.294230
0.324540
0.363640
0.400780
0.438910
0.480940
0.522970
0.562070
0.593350
0.616810
0.630500
0.637340
0.636360
0.629520
0.617790
0.601170
0.584560
0.565980
0.544480
0.519060
0.492670
0.464320
0.435970
0.408600
0.383190
0.360700
0.340180
0.324540
0.313780
0.305960
0.301080
0.297170
0.296190
0.296190
0.297170
0.299120
0.300100
0.302050
0.304010
0.304010
0.304990
0.304990
0.304990
0.304010
0.302050
0.300100
0.298140
0.295210
0.292280
0.290320
0.288370
0.285430
0.283480
0.281520
0.279570
0.276640
0.273700
0.270770
0.267840
0.263930
0.261970
0.261000
0.259040
0.259040
0.261000
0.266860
0.277610
0.294230
0.319650
0.352880
0.393940
0.439880
0.487780
0.532750
0.573800
0.607040
0.632450
0.649070
0.656890
0.658850
0.654940
0.646140
0.632450
0.615840
0.596290
0.574780
0.550340
0.524930
0.497560
0.470190
0.442820
0.420330
0.399800
0.379280
0.360700
0.344090
0.331380
0.321600
0.314760
0.310850
0.308900
0.308900
0.310850
0.312810
0.314760
0.315740
0.317690
0.318670
0.318670
0.318670
0.317690
0.315740
0.313780
0.311830
0.308900
0.306940
0.304990
0.304010
0.302050
0.300100
0.298140
0.296190
0.293260
0.291300
0.289350
0.286410
0.283480
0.280550
0.278590
0.277610
0.275660
0.276640
0.280550
0.291300
0.308900
0.336270
0.373410
0.416420
0.465300
0.516130
0.559140
0.595310
0.631480
0.662760
0.686220
0.700880
0.707720
0.707720
0.702830
0.693060
0.679370
0.662760
0.643210
0.624630
0.604110
0.580650
0.555230
0.527860
0.500490
0.474100
0.448680
0.426200
0.406650
0.390030
0.378300
0.369500
0.363640
0.360700
0.358750
0.357770
0.357770
0.358750
0.359730
0.360700
0.361680
0.361680
0.361680
0.360700
0.359730
0.358750
0.356790
0.354840
0.351910
0.348970
0.347020
0.344090
0.341150
0.338220
0.335290
0.333330
0.331380
0.329420
0.327470
0.324540
0.321600
0.319650
0.316720
0.315740
0.315740
0.320630
0.330400
0.348000
0.373410
0.402740
0.435000
0.478010
0.525900
0.574780
0.621700
0.662760
0.695990
0.721410
0.738030
0.745850
0.747800
0.743890
0.736070
0.724340
0.708700
0.691100
0.670580
0.648090
0.622680
0.595310
0.566960
0.537630
0.508310
0.479960
0.456500
0.436950
0.418380
0.401760
0.388070
0.378300
0.371460
0.366570
0.364610
0.363640
0.363640
0.364610
0.365590
0.366570
0.366570
0.365590
0.364610
0.362660
0.359730
0.356790
0.353860
0.349950
0.346040
0.343110
0.339200
0.336270
0.333330
0.329420
0.325510
0.320630
0.314760
0.309870
0.304010
0.298140
0.292280
0.287390
0.282500
0.279570
0.279570
0.281520
0.290320
0.304990
0.329420
0.361680
0.401760
0.447700
0.496580
0.543500
0.585530
0.621700
0.647120
0.662760
0.673510
0.679370
0.678400
0.672530
0.661780
0.647120
0.629520
0.609970
0.587490
0.562070
0.538610
0.515150
0.488760
0.460410
0.432060
0.405670
0.382210
0.361680
0.345060
0.332360
0.322580
0.315740
0.311830
0.310850
0.310850
0.311830
0.312810
0.313780
0.314760
0.314760
0.313780
0.311830
0.309870
0.307920
0.304990
0.303030
0.300100
0.295210
0.291300
0.287390
0.283480
0.279570
0.275660
0.271750
0.266860
0.261970
0.257090
0.252200
0.248290
0.245360
0.241450
0.236560
0.232650
0.229720
0.228740
0.232650
0.242420
0.260020
0.285430
0.319650
0.353860
0.390030
0.434020
0.478980
0.521020
0.557180
0.586510
0.606060
0.616810
0.620720
0.617790
0.608990
0.598240
0.584560
0.566960
0.546430
0.522970
0.497560
0.471160
0.443790
0.417400
0.391980
0.368520
0.347020
0.329420
0.315740
0.305960
0.298140
0.292280
0.288370
0.287390
0.287390
0.289350
0.291300
0.293260
0.295210
0.296190
0.297170
0.298140
0.298140
0.297170
0.295210
0.293260
0.291300
0.288370
0.286410
0.283480
0.280550
0.277610
0.273700
0.271750
0.269790
0.267840
0.263930
0.260020
0.257090
0.253180
0.249270
0.246330
0.242420
0.240470
0.238510
0.240470
0.245360
0.256110
0.273700
0.301080
0.337240
0.380250
0.427170
0.476050
0.522970
0.564030
0.598240
0.623660
0.639300
0.646140
0.648090
0.644180
0.635390
0.621700
0.605080
0.585530
0.563050
0.538610
0.513200
0.486800
0.463340
0.441840
0.418380
0.394920
0.373410
0.354840
0.340180
0.327470
0.318670
0.312810
0.309870
0.307920
0.307920
0.308900
0.309870
0.310850
0.311830
0.311830
0.312810
0.312810
0.311830
0.310850
0.309870
0.308900
0.306940
0.305960
0.304990
0.304010
0.302050
0.299120
0.296190
0.293260
0.290320
0.287390
0.284460
0.280550
0.277610
0.273700
0.270770
0.268820
0.265880
0.262950
0.261970
0.264910
0.272730
0.288370
0.312810
0.346040
0.387100
0.433040
0.476050
0.514170
0.556210
0.594330
0.625610
0.649070
0.664710
0.671550
0.670580
0.664710
0.653960
0.638320
0.619750
0.601170
0.581620
0.558160
0.531770
0.504400
0.477030
0.448680
0.422290
0.396870
0.374390
0.354840
0.339200
0.326490
0.318670
0.311830
0.307920
0.304990
0.304990
0.304990
0.305960
0.306940
0.307920
0.307920
0.307920
0.307920
0.307920
0.307920
0.305960
0.304990
0.303030
0.302050
0.300100
0.298140
0.296190
0.293260
0.291300
0.288370
0.286410
0.285430
0.283480
0.280550
0.276640
0.273700
0.269790
0.267840
0.265880
0.264910
0.267840
0.276640
0.291300
0.310850
0.335290
0.371460
0.415440
0.465300
0.517110
0.566960
0.611930
0.649070
0.678400
0.697950
0.709680
0.713590
0.710650
0.703810
0.694040
0.679370
0.662760
0.644180
0.621700
0.597260
0.570870
0.542520
0.514170
0.485830
0.460410
0.434020
0.410560
0.394920
0.380250
0.368520
0.359730
0.359730
0.365590
0.369500
0.371460
0.374390
0.376340
0.378300
0.380250
0.381230
0.382210
0.381230
0.381230
0.379280
0.377320
0.375370
0.373410
0.370480
0.369500
0.367550
0.365590
0.362660
0.359730
0.356790
0.354840
0.351910
0.348000
0.344090
0.340180
0.336270
0.331380
0.327470
0.325510
0.325510
0.328450
0.337240
0.353860
0.379280
0.415440
0.459430
0.510260
0.564030
0.616810
0.659820
0.693060
0.724340
0.749760
0.766370
0.775170
0.777130
0.773220
0.764420
0.752690
0.737050
0.719450
0.697950
0.677420
0.655910
0.630500
0.602150
0.572830
0.543500
0.514170
0.485830
0.461390
0.438910
0.421310
0.407620
0.397850
0.391980
0.388070
0.385140
0.384160
0.384160
0.384160
0.384160
0.384160
0.384160
0.383190
0.381230
0.379280
0.377320
0.375370
0.372430
0.369500
0.366570
0.363640
0.359730
0.356790
0.352880
0.348970
0.345060
0.340180
0.336270
0.333330
0.329420
0.325510
0.321600
0.316720
0.311830
0.307920
0.305960
0.307920
0.316720
0.333330
0.358750
0.388070
0.420330
0.462370
0.508310
0.556210
0.601170
0.640270
0.670580
0.693060
0.705770
0.711630
0.709680
0.702830
0.692080
0.677420
0.659820
0.639300
0.608990
0.580650
0.558160
0.532750
0.504400
0.476050
0.447700
0.422290
0.400780
0.383190
0.367550
0.353860
0.343110
0.336270
0.331380
0.329420
0.328450
0.328450
0.328450
0.329420
0.330400
0.331380
0.332360
0.332360
0.331380
0.330400
0.328450
0.326490
0.323560
0.319650
0.316720
0.312810
0.309870
0.307920
0.305960
0.303030
0.299120
0.296190
0.292280
0.287390
0.283480
0.279570
0.275660
0.270770
0.266860
0.265880
0.265880
0.268820
0.275660
0.290320
0.311830
0.354840
0.399800
0.435000
0.478010
0.522970
0.565980
0.603130
0.630500
0.649070
0.661780
0.664710
0.663730
0.659820
0.651030
0.636360
0.618770
0.590420
0.563050
0.542520
0.521020
0.498530
0.474100
0.447700
0.422290
0.398830
0.374390
0.355820
0.344090
0.333330
0.326490
0.322580
0.320630
0.320630
0.321600
0.322580
0.324540
0.326490
0.327470
0.329420
0.329420
0.329420
0.327470
0.326490
0.324540
0.322580
0.320630
0.319650
0.317690
0.314760
0.311830
0.309870
0.307920
0.304010
0.301080
0.299120
0.295210
0.292280
0.288370
0.284460
0.280550
0.275660
0.272730
0.271750
0.274680
0.282500
0.290320
0.310850
0.347020
0.383190
0.419350
0.462370
0.508310
0.552300
0.591400
0.622680
0.646140
0.660800
0.667640
0.666670
0.659820
0.649070
0.636360
0.611930
0.580650
0.553270
0.526880
0.500490
0.473120
0.446730
0.421310
0.396870
0.375370
0.356790
0.343110
0.333330
0.323560
0.317690
0.312810
0.310850
0.309870
0.310850
0.311830
0.313780
0.314760
0.315740
0.315740
0.316720
0.315740
0.314760
0.313780
0.311830
0.310850
0.307920
0.305960
0.304010
0.301080
0.299120
0.296190
0.294230
0.292280
0.290320
0.287390
0.283480
0.280550
0.277610
0.274680
0.270770
0.266860
0.263930
0.261970
0.262950
0.265880
0.273700
0.288370
0.311830
0.343110
0.381230
0.426200
0.473120
0.519060
0.562070
0.597260
0.624630
0.642230
0.652000
0.655910
0.653960
0.647120
0.636360
0.621700
0.603130
0.582600
0.560120
0.535680
0.510260
0.486800
0.464320
0.440860
0.416420
0.394920
0.374390
0.357770
0.344090
0.333330
0.325510
0.321600
0.318670
0.317690
0.318670
0.319650
0.321600
0.322580
0.323560
0.323560
0.323560
0.322580
0.321600
0.319650
0.317690
0.315740
0.313780
0.312810
0.311830
0.310850
0.308900
0.306940
0.304990
0.302050
0.299120
0.297170
0.294230
0.292280
0.289350
0.287390
0.285430
0.282500
0.280550
0.279570
0.280550
0.286410
0.298140
0.318670
0.347020
0.385140
0.429130
0.471160
0.510260
0.553270
0.595310
0.631480
0.659820
0.679370
0.691100
0.695010
0.693060
0.685240
0.674490
0.658850
0.643210
0.625610
0.604110
0.580650
0.554250
0.527860
0.499510
0.472140
0.445750
0.422290
0.400780
0.382210
0.369500
0.359730
0.351910
0.346040
0.343110
0.342130
0.342130
0.344090
0.346040
0.348000
0.349950
0.350930
0.350930
0.351910
0.350930
0.349950
0.348970
0.347020
0.346040
0.344090
0.342130
0.339200
0.337240
0.334310
0.332360
0.329420
0.327470
0.325510
0.322580
0.318670
0.315740
0.312810
0.308900
0.304990
0.301080
0.300100
0.304010
0.313780
0.328450
0.348000
0.378300
0.418380
0.464320
0.515150
0.565980
0.612900
0.654940
0.688170
0.713590
0.729230
0.737050
0.738030
0.735090
0.728250
0.718480
0.704790
0.689150
0.670580
0.649070
0.624630
0.598240
0.570870
0.544480
0.521020
0.494620
0.469210
0.445750
0.425220
0.407620
0.394920
0.384160
0.378300
0.374390
0.372430
0.371460
0.371460
0.372430
0.372430
0.372430
0.372430
0.371460
0.369500
0.366570
0.363640
0.359730
0.355820
0.351910
0.348970
0.347020
0.344090
0.340180
0.336270
0.332360
0.329420
0.324540
0.320630
0.316720
0.312810
0.307920
0.304010
0.300100
0.297170
0.295210
0.294230
0.296190
0.304990
0.320630
0.346040
0.377320
0.417400
0.464320
0.513200
0.555230
0.591400
0.625610
0.655910
0.678400
0.693060
0.699900
0.699900
0.694040
0.683280
0.668620
0.651030
0.630500
0.610950
0.589440
0.565000
0.536660
0.507330
0.478010
0.448680
0.421310
0.395890
0.374390
0.355820
0.342130
0.332360
0.325510
0.321600
0.318670
0.317690
0.318670
0.319650
0.320630
0.321600
0.321600
0.321600
0.320630
0.318670
0.316720
0.314760
0.311830
0.308900
0.305960
0.302050
0.299120
0.296190
0.292280
0.288370
0.285430
0.280550
0.277610
0.274680
0.270770
0.266860
0.262950
0.259040
0.254150
0.250240
0.247310
0.245360
0.248290
0.256110
0.271750
0.292280
0.316720
0.351910
0.394920
0.440860
0.488760
0.532750
0.570870
0.602150
0.625610
0.639300
0.646140
0.645160
0.640270
0.630500
0.616810
0.600200
0.579670
0.557180
0.532750
0.506350
0.478010
0.449660
0.422290
0.395890
0.374390
0.355820
0.339200
0.324540
0.312810
0.304010
0.297170
0.293260
0.291300
0.290320
0.290320
0.290320
0.291300
0.291300
0.291300
0.290320
0.289350
0.287390
0.284460
0.282500
0.280550
0.277610
0.275660
0.273700
0.271750
0.269790
0.269790
0.267840
0.265880
0.263930
0.261000
0.258060
0.255130
0.253180
0.250240
0.246330
0.242420
0.240470
0.238510
0.237540
0.238510
0.244380
0.257090
0.278590
0.307920
0.346040
0.390030
0.436950
0.483870
0.528840
0.563050
0.589440
0.612900
0.628540
0.638320
0.640270
0.636360
0.627570
0.612900
0.596290
0.575760
0.553270
0.531770
0.510260
0.485830
0.460410
0.434020
0.408600
0.386120
0.365590
0.348970
0.335290
0.325510
0.318670
0.313780
0.311830
0.311830
0.312810
0.314760
0.316720
0.318670
0.320630
0.322580
0.323560
0.324540
0.325510
0.325510
0.324540
0.324540
0.323560
0.322580
0.321600
0.320630
0.318670
0.317690
0.315740
0.313780
0.310850
0.308900
0.306940
0.305960
0.304010
0.301080
0.298140
0.295210
0.292280
0.290320
0.291300
0.296190
0.306940
0.326490
0.354840
0.385140
0.419350
0.463340
0.512220
0.562070
0.608020
0.648090
0.679370
0.701860
0.715540
0.721410
0.719450
0.713590
0.703810
0.690130
0.673510
0.654940
0.633430
0.609970
0.583580
0.557180
0.528840
0.501470
0.475070
0.450640
0.431090
0.415440
0.400780
0.389050
0.380250
0.373410
0.368520
0.366570
0.365590
0.365590
0.365590
0.366570
0.367550
0.367550
0.367550
0.367550
0.365590
0.363640
0.360700
0.356790
0.353860
0.349950
0.347020
0.343110
0.339200
0.336270
0.333330
0.333330
0.335290
0.334310
0.331380
0.327470
0.322580
0.318670
0.313780
0.308900
0.305960
0.304010
0.304010
0.307920
0.318670
0.336270
0.363640
0.398830
0.442820
0.491690
0.542520
0.591400
0.635390
0.671550
0.695990
0.710650
0.720430
0.724340
0.722390
0.714570
0.702830
0.687190
0.668620
0.647120
0.623660
0.596290
0.571850
0.546430
0.518080
0.488760
0.459430
0.433040
0.408600
0.388070
0.370480
0.357770
0.348000
0.341150
0.336270
0.334310
0.333330
0.333330
0.334310
0.334310
0.334310
0.334310
0.332360
0.330400
0.327470
0.324540
0.321600
0.318670
0.316720
0.313780
0.309870
0.306940
0.303030
0.299120
0.296190
0.292280
0.288370
0.284460
0.279570
0.274680
0.270770
0.267840
0.263930
0.260020
0.255130
0.252200
0.251220
0.254150
0.263930
0.281520
0.307920
0.343110
0.379280
0.416420
0.460410
0.506350
0.549360
0.586510
0.616810
0.637340
0.650050
0.654940
0.652980
0.645160
0.633430
0.618770
0.603130
0.583580
0.560120
0.535680
0.508310
0.480940
0.452590
0.425220
0.399800
0.377320
0.357770
0.344090
0.333330
0.325510
0.319650
0.315740
0.313780
0.313780
0.314760
0.316720
0.318670
0.319650
0.320630
0.320630
0.320630
0.320630
0.318670
0.316720
0.313780
0.311830
0.308900
0.306940
0.304990
0.302050
0.300100
0.298140
0.296190
0.294230
0.291300
0.288370
0.285430
0.282500
0.278590
0.274680
0.270770
0.266860
0.263930
0.261970
0.262950
0.266860
0.275660
0.291300
0.315740
0.348970
0.389050
0.435000
0.482890
0.529810
0.572830
0.608990
0.636360
0.653960
0.662760
0.665690
0.662760
0.654940
0.642230
0.625610
0.605080
0.582600
0.558160
0.531770
0.504400
0.479960
0.457480
0.432060
0.407620
0.385140
0.366570
0.349950
0.337240
0.327470
0.321600
0.318670
0.317690
0.317690
0.318670
0.320630
0.321600
0.323560
0.323560
0.323560
0.323560
0.322580
0.320630
0.319650
0.317690
0.315740
0.313780
0.312810
0.309870
0.307920
0.304990
0.302050
0.299120
0.295210
0.292280
0.288370
0.285430
0.282500
0.278590
0.275660
0.273700
0.269790
0.266860
0.263930
0.263930
0.267840
0.278590
0.296190
0.323560
0.359730
0.403710
0.444770
0.484850
0.528840
0.571850
0.608990
0.639300
0.660800
0.672530
0.677420
0.674490
0.665690
0.652000
0.635390
0.616810
0.597260
0.574780
0.550340
0.522970
0.495600
0.467250
0.440860
0.415440
0.392960
0.372430
0.355820
0.344090
0.336270
0.329420
0.325510
0.323560
0.322580
0.322580
0.323560
0.324540
0.326490
0.329420
0.330400
0.330400
0.329420
0.329420
0.327470
0.325510
0.322580
0.319650
0.316720
0.312810
0.309870
0.306940
0.304010
0.300100
0.297170
0.295210
0.293260
0.290320
0.286410
0.283480
0.280550
0.276640
0.271750
0.268820
0.266860
0.268820
0.275660
0.287390
0.304990
0.333330
0.371460
0.417400
0.470190
0.522970
0.574780
0.620720
0.658850
0.688170
0.707720
0.717500
0.720430
0.717500
0.709680
0.697950
0.683280
0.664710
0.643210
0.618770
0.593350
0.565000
0.535680
0.506350
0.480940
0.458460
0.435970
0.414470
0.394920
0.379280
0.367550
0.358750
0.353860
0.350930
0.349950
0.349950
0.350930
0.351910
0.353860
0.353860
0.354840
0.353860
0.353860
0.352880
0.350930
0.348970
0.348000
0.346040
0.344090
0.343110
0.341150
0.340180
0.338220
0.335290
0.333330
0.330400
0.327470
0.324540
0.320630
0.316720
0.312810
0.309870
0.306940
0.304990
0.303030
0.304990
0.311830
0.325510
0.349950
0.384160
0.427170
0.478010
0.532750
0.587490
0.632450
0.670580
0.705770
0.735090
0.755620
0.767350
0.772240
0.769310
0.761490
0.749760
0.733140
0.714570
0.695010
0.674490
0.650050
0.622680
0.593350
0.563050
0.531770
0.501470
0.473120
0.448680
0.427170
0.408600
0.395890
0.387100
0.381230
0.377320
0.375370
0.375370
0.377320
0.380250
0.383190
0.386120
0.387100
0.387100
0.387100
0.386120
0.385140
0.382210
0.379280
0.376340
0.372430
0.368520
0.365590
0.361680
0.357770
0.353860
0.348970
0.345060
0.342130
0.338220
0.333330
0.328450
0.324540
0.318670
0.313780
0.309870
0.307920
0.310850
0.319650
0.337240
0.360700
0.389050
0.430110
0.479960
0.534700
0.590420
0.642230
0.687190
0.723360
0.749760
0.766370
0.774190
0.775170
0.770280
0.761490
0.748780
0.733140
0.713590
0.692080
0.666670
0.640270
0.610950
0.579670
0.548390
0.517110
0.489740
0.466280
0.441840
0.419350
0.399800
0.383190
0.371460
0.362660
0.356790
0.352880
0.350930
0.349950
0.349950
0.349950
0.348970
0.347020
0.345060
0.343110
0.340180
0.336270
0.333330
0.329420
0.325510
0.321600
0.317690
0.314760
0.312810
0.308900
0.304990
0.302050
0.298140
0.294230
0.290320
0.287390
0.283480
0.278590
0.274680
0.271750
0.268820
0.267840
0.268820
0.274680
0.286410
0.307920
0.338220
0.377320
0.424240
0.474100
0.524930
0.571850
0.608990
0.636360
0.660800
0.677420
0.687190
0.688170
0.684260
0.674490
0.659820
0.642230
0.621700
0.598240
0.574780
0.552300
0.525900
0.491690
0.454550
0.423260
0.393940
0.369500
0.347020
0.329420
0.314760
0.304010
0.297170
0.293260
0.292280
0.291300
0.292280
0.293260
0.294230
0.296190
0.296190
0.297170
0.296190
0.295210
0.293260
0.291300
0.290320
0.288370
0.285430
0.283480
0.280550
0.276640
0.273700
0.269790
0.265880
0.261970
0.258060
0.254150
0.251220
0.248290
0.244380
0.240470
0.235580
0.231670
0.227760
0.224830
0.225810
0.230690
0.242420
0.262950
0.287390
0.315740
0.354840
0.400780
0.449660
0.497560
0.540570
0.576740
0.605080
0.623660
0.633430
0.636360
0.631480
0.622680
0.610950
0.595310
0.575760
0.553270
0.527860
0.500490
0.471160
0.441840
0.412510
0.384160
0.357770
0.337240
0.320630
0.305960
0.293260
0.283480
0.277610
0.274680
0.273700
0.274680
0.276640
0.279570
0.281520
0.284460
0.286410
0.287390
0.288370
0.288370
0.288370
0.288370
0.287390
0.286410
0.284460
0.283480
0.282500
0.281520
0.280550
0.279570
0.277610
0.275660
0.273700
0.271750
0.269790
0.267840
0.264910
0.262950
0.260020
0.258060
0.257090
0.257090
0.258060
0.263930
0.274680
0.293260
0.321600
0.357770
0.401760
0.450640
0.500490
0.548390
0.591400
0.623660
0.646140
0.664710
0.675460
0.680350
0.677420
0.669600
0.656890
0.640270
0.620720
0.599220
0.574780
0.551320
0.528840
0.502440
0.475070
0.448680
0.422290
0.399800
0.379280
0.362660
0.349950
0.341150
0.334310
0.331380
0.330400
0.330400
0.331380
0.333330
0.335290
0.337240
0.339200
0.341150
0.342130
0.342130
0.342130
0.340180
0.339200
0.338220
0.337240
0.335290
0.334310
0.332360
0.329420
0.327470
0.324540
0.321600
0.318670
0.315740
0.311830
0.308900
0.306940
0.304010
0.300100
0.296190
0.293260
0.291300
0.293260
0.299120
0.312810
0.336270
0.369500
0.403710
0.441840
0.488760
0.539590
0.590420
0.636360
0.674490
0.704790
0.725320
0.738030
0.741940
0.739980
0.733140
0.723360
0.710650
0.694040
0.674490
0.652980
0.627570
0.600200
0.570870
0.541540
0.511240
0.481920
0.455520
0.434020
0.415440
0.399800
0.386120
0.375370
0.367550
0.362660
0.360700
0.359730
0.360700
0.360700
0.361680
0.361680
0.361680
0.360700
0.359730
0.357770
0.354840
0.351910
0.348970
0.345060
0.340180
0.336270
0.332360
0.328450
0.325510
0.322580
0.319650
0.315740
0.311830
0.306940
0.303030
0.299120
0.294230
0.290320
0.286410
0.282500
0.280550
0.279570
0.282500
0.291300
0.307920
0.333330
0.368520
0.411530
0.460410
0.510260
0.561090
0.606060
0.643210
0.667640
0.682310
0.693060
0.695990
0.694040
0.687190
0.675460
0.659820
0.641250
0.620720
0.597260
0.572830
0.546430
0.521990
0.498530
0.472140
0.445750
0.420330
0.396870
0.376340
0.358750
0.345060
0.335290
0.328450
0.324540
0.323560
0.324540
0.325510
0.326490
0.327470
0.328450
0.327470
0.326490
0.324540
0.322580
0.319650
0.315740
0.312810
0.310850
0.308900
0.305960
0.303030
0.299120
0.296190
0.293260
0.290320
0.287390
0.283480
0.280550
0.276640
0.274680
0.272730
0.269790
0.265880
0.261970
0.259040
0.258060
0.261000
0.268820
0.284460
0.307920
0.339200
0.372430
0.407620
0.449660
0.494620
0.538610
0.576740
0.608020
0.630500
0.645160
0.651030
0.650050
0.644180
0.633430
0.621700
0.607040
0.589440
0.568910
0.546430
0.521990
0.495600
0.470190
0.443790
0.418380
0.395890
0.376340
0.360700
0.348970
0.339200
0.331380
0.326490
0.324540
0.323560
0.324540
0.326490
0.327470
0.329420
0.330400
0.331380
0.331380
0.331380
0.330400
0.329420
0.327470
0.325510
0.323560
0.321600
0.318670
0.315740
0.313780
0.311830
0.309870
0.308900
0.306940
0.304990
0.302050
0.298140
0.294230
0.290320
0.286410
0.282500
0.278590
0.275660
0.273700
0.274680
0.279570
0.289350
0.305960
0.330400
0.363640
0.402740
0.446730
0.491690
0.534700
0.572830
0.605080
0.626590
0.639300
0.647120
0.649070
0.645160
0.637340
0.623660
0.608020
0.588470
0.566960
0.543500
0.518080
0.491690
0.468230
0.447700
0.425220
0.402740
0.383190
0.365590
0.351910
0.340180
0.332360
0.327470
0.324540
0.323560
0.323560
0.324540
0.326490
0.327470
0.329420
0.330400
0.330400
0.330400
0.329420
0.327470
0.325510
0.323560
0.320630
0.318670
0.316720
0.314760
0.312810
0.310850
0.308900
0.305960
0.303030
0.299120
0.296190
0.293260
0.290320
0.287390
0.285430
0.282500
0.279570
0.276640
0.274680
0.275660
0.280550
0.291300
0.308900
0.336270
0.371460
0.413490
0.453570
0.490710
0.532750
0.572830
0.607040
0.634410
0.653960
0.664710
0.667640
0.664710
0.656890
0.644180
0.629520
0.612900
0.593350
0.571850
0.547410
0.521990
0.495600
0.468230
0.441840
0.417400
0.395890
0.377320
0.360700
0.349950
0.342130
0.336270
0.332360
0.330400
0.330400
0.331380
0.332360
0.333330
0.334310
0.334310
0.333330
0.333330
0.332360
0.331380
0.329420
0.327470
0.325510
0.323560
0.321600
0.318670
0.315740
0.313780
0.311830
0.308900
0.306940
0.304990
0.303030
0.300100
0.296190
0.293260
0.290320
0.286410
0.282500
0.279570
0.277610
0.279570
0.284460
0.294230
0.313780
0.342130
0.380250
0.427170
0.479960
0.534700
0.588470
0.636360
0.677420
0.709680
0.731180
0.741940
0.744870
0.742910
0.736070
0.724340
0.709680
0.691100
0.669600
0.646140
0.618770
0.590420
0.561090
0.533720
0.509290
0.482890
0.457480
0.433040
0.412510
0.394920
0.381230
0.371460
0.365590
0.361680
0.360700
0.360700
0.361680
0.363640
0.365590
0.367550
0.368520
0.369500
0.369500
0.369500
0.367550
0.365590
0.363640
0.360700
0.357770
0.355820
0.353860
0.350930
0.347020
0.344090
0.340180
0.337240
0.333330
0.329420
0.325510
0.321600
0.318670
0.315740
0.310850
0.306940
0.304010
0.303030
0.305960
0.316720
0.337240
0.367550
0.408600
0.457480
0.512220
0.562070
0.606060
0.652000
0.695010
0.730210
0.755620
0.773220
0.781040
0.782010
0.777130
0.767350
0.753670
0.738030
0.721410
0.701860
0.679370
0.653960
0.627570
0.599220
0.569890
0.540570
0.511240
0.484850
0.460410
0.439880
0.423260
0.411530
0.401760
0.394920
0.390030
0.388070
0.389050
0.390030
0.391010
0.392960
0.392960
0.392960
0.391980
0.390030
0.388070
0.384160
0.380250
0.376340
0.372430
0.367550
0.363640
0.358750
0.353860
0.349950
0.345060
0.341150
0.338220
0.334310
0.330400
0.326490
0.321600
0.316720
0.311830
0.306940
0.303030
0.302050
0.305960
0.314760
0.329420
0.353860
0.389050
0.433040
0.483870
0.537630
0.591400
0.641250
0.683280
0.716520
0.740960
0.754640
0.760510
0.758550
0.752690
0.741940
0.728250
0.710650
0.691100
0.667640
0.642230
0.614860
0.584560
0.554250
0.525900
0.499510
0.471160
0.443790
0.417400
0.394920
0.376340
0.361680
0.350930
0.343110
0.339200
0.337240
0.336270
0.337240
0.338220
0.339200
0.339200
0.338220
0.337240
0.335290
0.333330
0.330400
0.327470
0.323560
0.320630
0.317690
0.314760
0.311830
0.307920
0.304010
0.300100
0.296190
0.291300
0.286410
0.280550
0.275660
0.270770
0.265880
0.261970
0.259040
0.255130
0.253180
0.253180
0.259040
0.270770
0.292280
0.322580
0.361680
0.408600
0.459430
0.504400
0.544480
0.584560
0.619750
0.648090
0.667640
0.678400
0.681330
0.677420
0.667640
0.653960
0.636360
0.615840
0.595310
0.573800
0.548390
0.520040
0.490710
0.461390
0.432060
0.405670
0.380250
0.359730
0.342130
0.328450
0.318670
0.312810
0.308900
0.306940
0.306940
0.306940
0.307920
0.308900
0.309870
0.310850
0.309870
0.306940
0.305960
0.305960
0.304010
0.302050
0.300100
0.297170
0.295210
0.292280
0.290320
0.288370
0.285430
0.282500
0.279570
0.277610
0.275660
0.273700
0.270770
0.267840
0.263930
0.260020
0.256110
0.252200
0.250240
0.249270
0.254150
0.261970
0.274680
0.297170
0.327470
0.365590
0.410560
0.457480
0.503420
0.545450
0.581620
0.608990
0.628540
0.639300
0.642230
0.639300
0.632450
0.621700
0.607040
0.589440
0.568910
0.546430
0.521020
0.495600
0.468230
0.441840
0.418380
0.397850
0.377320
0.357770
0.341150
0.327470
0.317690
0.310850
0.306940
0.304990
0.304990
0.305960
0.307920
0.309870
0.311830
0.312810
0.312810
0.311830
0.310850
0.308900
0.305960
0.302050
0.299120
0.295210
0.291300
0.288370
0.286410
0.283480
0.279570
0.275660
0.272730
0.268820
0.264910
0.261000
0.258060
0.255130
0.252200
0.249270
0.247310
0.245360
0.244380
0.244380
0.248290
0.257090
0.272730
0.296190
0.329420
0.369500
0.416420
0.465300
0.508310
0.544480
0.580650
0.611930
0.636360
0.652000
0.659820
0.661780
0.656890
0.648090
0.634410
0.618770
0.599220
0.580650
0.561090
0.538610
0.514170
0.488760
0.462370
0.437930
0.415440
0.394920
0.377320
0.363640
0.352880
0.346040
0.342130
0.339200
0.338220
0.337240
0.338220
0.339200
0.340180
0.341150
0.342130
0.343110
0.343110
0.342130
0.342130
0.342130
0.340180
0.338220
0.336270
0.334310
0.331380
0.329420
0.327470
0.325510
0.322580
0.320630
0.318670
0.316720
0.314760
0.312810
0.310850
0.307920
0.304990
0.303030
0.301080
0.301080
0.304990
0.314760
0.333330
0.355820
0.383190
0.421310
0.467250
0.518080
0.568910
0.616810
0.658850
0.692080
0.716520
0.732160
0.739980
0.739980
0.736070
0.728250
0.716520
0.701860
0.685240
0.665690
0.644180
0.619750
0.593350
0.565980
0.537630
0.509290
0.484850
0.463340
0.440860
0.421310
0.405670
0.392960
0.383190
0.377320
0.373410
0.372430
0.373410
0.374390
0.376340
0.378300
0.380250
0.381230
0.381230
0.381230
0.379280
0.376340
0.373410
0.370480
0.366570
0.362660
0.358750
0.354840
0.351910
0.348970
0.345060
0.341150
0.337240
0.333330
0.328450
0.324540
0.319650
0.314760
0.309870
0.305960
0.304010
0.301080
0.302050
0.306940
0.318670
0.339200
0.370480
0.409580
0.456500
0.507330
0.558160
0.600200
0.634410
0.666670
0.692080
0.711630
0.722390
0.726300
0.724340
0.717500
0.706740
0.692080
0.675460
0.655910
0.635390
0.614860
0.590420
0.563050
0.535680
0.508310
0.479960
0.452590
0.427170
0.404690
0.385140
0.370480
0.359730
0.352880
0.347020
0.344090
0.342130
0.341150
0.340180
0.340180
0.340180
0.339200
0.338220
0.336270
0.334310
0.332360
0.330400
0.327470
0.323560
0.319650
0.315740
0.312810
0.308900
0.304990
0.300100
0.296190
0.291300
0.287390
0.284460
0.280550
0.276640
0.271750
0.266860
0.262950
0.259040
0.255130
0.254150
0.256110
0.262950
0.277610
0.296190
0.320630
0.354840
0.396870
0.441840
0.488760
0.531770
0.569890
0.600200
0.621700
0.635390
0.641250
0.641250
0.636360
0.627570
0.615840
0.600200
0.582600
0.562070
0.538610
0.514170
0.487780
0.460410
0.434020
0.408600
0.388070
0.370480
0.353860
0.339200
0.327470
0.319650
0.313780
0.310850
0.309870
0.309870
0.311830
0.312810
0.314760
0.315740
0.316720
0.316720
0.316720
0.315740
0.314760
0.312810
0.310850
0.308900
0.306940
0.304010
0.302050
0.300100
0.299120
0.297170
0.295210
0.292280
0.289350
0.286410
0.282500
0.278590
0.275660
0.271750
0.267840
0.265880
0.263930
0.262950
0.262950
0.267840
0.277610
0.294230
0.320630
0.353860
0.393940
0.438910
0.484850
0.528840
0.564030
0.592380
0.616810
0.635390
0.646140
0.651030
0.649070
0.641250
0.629520
0.614860
0.596290
0.575760
0.555230
0.534700
0.511240
0.484850
0.458460
0.433040
0.408600
0.386120
0.365590
0.349950
0.337240
0.327470
0.320630
0.317690
0.316720
0.316720
0.317690
0.318670
0.320630
0.321600
0.321600
0.321600
0.321600
0.320630
0.318670
0.317690
0.316720
0.314760
0.312810
0.310850
0.308900
0.306940
0.304010
0.302050
0.299120
0.296190
0.293260
0.290320
0.287390
0.285430
0.282500
0.279570
0.275660
0.271750
0.267840
0.264910
0.263930
0.266860
0.274680
0.291300
0.310850
0.335290
0.370480
0.412510
0.458460
0.505380
0.548390
0.587490
0.617790
0.640270
0.653960
0.659820
0.658850
0.653960
0.644180
0.631480
0.614860
0.596290
0.575760
0.552300
0.527860
0.502440
0.476050
0.449660
0.425220
0.404690
0.387100
0.370480
0.355820
0.344090
0.335290
0.330400
0.326490
0.325510
0.325510
0.325510
0.326490
0.328450
0.329420
0.329420
0.329420
0.328450
0.327470
0.326490
0.324540
0.322580
0.319650
0.316720
0.314760
0.311830
0.309870
0.308900
0.306940
0.303030
0.299120
0.295210
0.291300
0.287390
0.283480
0.279570
0.275660
0.270770
0.267840
0.264910
0.262950
0.262950
0.267840
0.278590
0.298140
0.326490
0.363640
0.407620
0.456500
0.521990
0.594330
0.647120
0.684260
0.715540
0.738030
0.750730
0.754640
0.751710
0.742910
0.729230
0.711630
0.690130
0.665690
0.642230
0.618770
0.590420
0.560120
0.528840
0.497560
0.467250
0.439880
0.415440
0.393940
0.377320
0.364610
0.355820
0.350930
0.349950
0.349950
0.349950
0.351910
0.352880
0.354840
0.355820
0.355820
0.355820
0.354840
0.353860
0.352880
0.351910
0.349950
0.348000
0.345060
0.343110
0.341150
0.339200
0.337240
0.334310
0.331380
0.328450
0.325510
0.324540
0.323560
0.320630
0.318670
0.314760
0.311830
0.307920
0.306940
0.308900
0.316720
0.333330
0.360700
0.391980
0.429130
0.478980
0.536660
0.598240
0.656890
0.711630
0.756600
0.791790
0.817200
0.831870
0.838710
0.837730
0.830890
0.819160
0.804500
0.786900
0.766370
0.742910
0.716520
0.688170
0.657870
0.624630
0.591400
0.558160
0.529810
0.504400
0.479960
0.457480
0.439880
0.425220
0.414470
0.407620
0.403710
0.402740
0.403710
0.404690
0.407620
0.409580
0.411530
0.413490
0.414470
0.414470
0.413490
0.412510
0.410560
0.407620
0.404690
0.400780
0.396870
0.392960
0.390030
0.386120
0.381230
0.377320
0.372430
0.368520
0.363640
0.357770
0.351910
0.346040
0.340180
0.334310
0.331380
0.330400
0.333330
0.343110
0.362660
0.392960
0.434020
0.484850
0.542520
0.603130
0.660800
0.713590
0.753670
0.782010
0.806450
0.823070
0.832840
0.834800
0.829910
0.820140
0.806450
0.788860
0.768330
0.743890
0.717500
0.691100
0.664710
0.634410
0.601170
0.566960
0.532750
0.500490
0.471160
0.444770
0.423260
0.405670
0.392960
0.384160
0.378300
0.374390
0.372430
0.371460
0.371460
0.370480
0.370480
0.369500
0.368520
0.365590
0.362660
0.359730
0.356790
0.353860
0.349950
0.346040
0.342130
0.337240
0.332360
0.328450
0.323560
0.317690
0.312810
0.307920
0.304010
0.301080
0.297170
0.292280
0.287390
0.282500
0.278590
0.275660
0.276640
0.283480
0.297170
0.320630
0.348970
0.382210
0.427170
0.478980
0.534700
0.588470
0.637340
0.678400
0.709680
0.731180
0.742910
0.745850
0.740960
0.732160
0.720430
0.703810
0.683280
0.660800
0.634410
0.606060
0.574780
0.542520
0.510260
0.477030
0.446730
0.421310
0.399800
0.379280
0.361680
0.347020
0.336270
0.328450
0.324540
0.322580
0.322580
0.323560
0.324540
0.325510
0.326490
0.327470
0.326490
0.326490
0.325510
0.323560
0.320630
0.317690
0.313780
0.310850
0.306940
0.303030
0.300100
0.297170
0.294230
0.290320
0.285430
0.275660
0.261970
0.253180
0.245360
0.239490
0.233630
0.227760
0.222870
0.218960
0.217990
0.219940
0.225810
0.238510
0.259040
0.289350
0.328450
0.373410
0.421310
0.470190
0.516130
0.551320
0.577710
0.600200
0.614860
0.623660
0.624630
0.619750
0.610950
0.597260
0.580650
0.562070
0.539590
0.516130
0.493650
0.472140
0.447700
0.421310
0.395890
0.371460
0.348970
0.330400
0.315740
0.304990
0.297170
0.293260
0.291300
0.292280
0.294230
0.297170
0.299120
0.302050
0.304990
0.306940
0.308900
0.308900
0.308900
0.307920
0.305960
0.304990
0.304010
0.303030
0.301080
0.300100
0.298140
0.296190
0.294230
0.291300
0.289350
0.286410
0.283480
0.281520
0.279570
0.277610
0.274680
0.271750
0.268820
0.265880
0.263930
0.265880
0.272730
0.286410
0.309870
0.342130
0.376340
0.413490
0.459430
0.508310
0.557180
0.602150
0.639300
0.667640
0.688170
0.699900
0.704790
0.702830
0.695990
0.686220
0.672530
0.655910
0.637340
0.615840
0.592380
0.566960
0.539590
0.511240
0.483870
0.457480
0.432060
0.412510
0.396870
0.382210
0.369500
0.360700
0.354840
0.351910
0.349950
0.350930
0.351910
0.353860
0.355820
0.356790
0.357770
0.357770
0.356790
0.355820
0.354840
0.352880
0.350930
0.348970
0.347020
0.346040
0.345060
0.344090
0.343110
0.341150
0.339200
0.336270
0.333330
0.330400
0.326490
0.322580
0.318670
0.313780
0.308900
0.304990
0.302050
0.302050
0.304990
0.313780
0.330400
0.355820
0.391010
0.434020
0.481920
0.532750
0.581620
0.625610
0.657870
0.682310
0.700880
0.714570
0.720430
0.720430
0.715540
0.705770
0.693060
0.676440
0.656890
0.635390
0.611930
0.588470
0.565980
0.539590
0.511240
0.482890
0.455520
0.429130
0.405670
0.386120
0.369500
0.356790
0.348000
0.343110
0.340180
0.338220
0.338220
0.337240
0.338220
0.338220
0.337240
0.336270
0.334310
0.332360
0.329420
0.326490
0.323560
0.320630
0.316720
0.312810
0.308900
0.304990
0.300100
0.295210
0.290320
0.285430
0.280550
0.275660
0.272730
0.269790
0.266860
0.262950
0.259040
0.255130
0.251220
0.248290
0.248290
0.253180
0.263930
0.284460
0.312810
0.344090
0.378300
0.421310
0.467250
0.512220
0.554250
0.589440
0.615840
0.634410
0.644180
0.646140
0.642230
0.634410
0.623660
0.608020
0.590420
0.569890
0.546430
0.521020
0.493650
0.465300
0.436950
0.409580
0.383190
0.359730
0.341150
0.327470
0.313780
0.304010
0.296190
0.291300
0.289350
0.288370
0.289350
0.291300
0.292280
0.302050
0.315740
0.322580
0.325510
0.327470
0.326490
0.325510
0.323560
0.321600
0.319650
0.316720
0.314760
0.311830
0.309870
0.307920
0.305960
0.303030
0.298140
0.293260
0.288370
0.282500
0.275660
0.269790
0.262950
0.256110
0.250240
0.246330
0.245360
0.246330
0.252200
0.264910
0.287390
0.317690
0.357770
0.404690
0.456500
0.508310
0.558160
0.604110
0.638320
0.663730
0.684260
0.698920
0.705770
0.705770
0.698920
0.687190
0.672530
0.653960
0.634410
0.612900
0.592380
0.572830
0.550340
0.527860
0.504400
0.482890
0.462370
0.444770
0.431090
0.420330
0.413490
0.408600
0.405670
0.405670
0.405670
0.406650
0.407620
0.408600
0.408600
0.408600
0.408600
0.407620
0.405670
0.403710
0.401760
0.399800
0.397850
0.395890
0.393940
0.391010
0.389050
0.386120
0.384160
0.382210
0.380250
0.378300
0.376340
0.373410
0.371460
0.369500
0.366570
0.363640
0.359730
0.354840
0.351910
0.351910
0.355820
0.365590
0.383190
0.409580
0.437930
0.470190
0.509290
0.553270
0.597260
0.636360
0.670580
0.695990
0.713590
0.723360
0.726300
0.721410
0.712610
0.700880
0.687190
0.669600
0.650050
0.627570
0.604110
0.578690
0.552300
0.525900
0.500490
0.477030
0.454550
0.436950
0.423260
0.409580
0.399800
0.391980
0.386120
0.384160
0.383190
0.383190
0.384160
0.384160
0.385140
0.385140
0.384160
0.383190
0.381230
0.379280
0.375370
0.371460
0.367550
0.363640
0.360700
0.356790
0.352880
0.348000
0.345060
0.341150
0.337240
0.333330
0.328450
0.323560
0.318670
0.313780
0.309870
0.304010
0.299120
0.294230
0.291300
0.290320
0.292280
0.298140
0.311830
0.334310
0.365590
0.404690
0.449660
0.497560
0.544480
0.588470
0.626590
0.652980
0.671550
0.685240
0.694040
0.695990
0.692080
0.683280
0.670580
0.653960
0.635390
0.613880
0.589440
0.566960
0.545450
0.521020
0.495600
0.470190
0.445750
0.423260
0.402740
0.386120
0.371460
0.360700
0.352880
0.348000
0.345060
0.344090
0.345060
0.346040
0.347020
0.348000
0.348970
0.348970
0.348000
0.347020
0.346040
0.344090
0.343110
0.342130
0.341150
0.339200
0.337240
0.336270
0.333330
0.331380
0.329420
0.326490
0.324540
0.321600
0.318670
0.316720
0.313780
0.310850
0.307920
0.304010
0.302050
0.300100
0.302050
0.309870
0.324540
0.348000
0.379280
0.413490
0.449660
0.493650
0.541540
0.587490
0.629520
0.664710
0.691100
0.710650
0.722390
0.726300
0.725320
0.719450
0.709680
0.697950
0.683280
0.664710
0.643210
0.622680
0.602150
0.577710
0.550340
0.522970
0.496580
0.471160
0.450640
0.434020
0.418380
0.404690
0.393940
0.386120
0.380250
0.377320
0.376340
0.376340
0.376340
0.376340
0.376340
0.376340
0.375370
0.374390
0.373410
0.371460
0.369500
0.366570
0.363640
0.360700
0.357770
0.354840
0.351910
0.349950
0.348000
0.345060
0.342130
0.339200
0.335290
0.332360
0.328450
0.324540
0.319650
0.315740
0.311830
0.309870
0.309870
0.313780
0.323560
0.342130
0.369500
0.406650
0.452590
0.503420
0.555230
0.605080
0.650050
0.687190
0.713590
0.730210
0.742910
0.748780
0.750730
0.746820
0.739000
0.728250
0.713590
0.695990
0.675460
0.652000
0.626590
0.601170
0.576740
0.548390
0.519060
0.489740
0.462370
0.437930
0.415440
0.396870
0.382210
0.369500
0.361680
0.355820
0.352880
0.350930
0.349950
0.349950
0.348970
0.348970
0.348000
0.346040
0.344090
0.342130
0.339200
0.337240
0.334310
0.331380
0.328450
0.325510
0.321600
0.318670
0.314760
0.310850
0.306940
0.302050
0.298140
0.293260
0.289350
0.286410
0.281520
0.276640
0.271750
0.266860
0.263930
0.263930
0.269790
0.282500
0.304010
0.335290
0.368520
0.404690
0.448680
0.494620
0.540570
0.581620
0.615840
0.642230
0.660800
0.671550
0.675460
0.674490
0.666670
0.656890
0.644180
0.628540
0.608990
0.586510
0.562070
0.534700
0.506350
0.477030
0.448680
0.422290
0.396870
0.377320
0.361680
0.347020
0.334310
0.324540
0.316720
0.311830
0.308900
0.306940
0.305960
0.304990
0.304010
0.304010
0.304010
0.303030
0.302050
0.301080
0.300100
0.298140
0.296190
0.294230
0.291300
0.287390
0.284460
0.280550
0.277610
0.275660
0.272730
0.269790
0.266860
0.263930
0.261000
0.257090
0.254150
0.250240
0.245360
0.240470
0.236560
0.235580
0.237540
0.244380
0.257090
0.278590
0.307920
0.344090
0.387100
0.434020
0.479960
0.522970
0.561090
0.589440
0.608990
0.624630
0.633430
0.637340
0.634410
0.626590
0.613880
0.597260
0.577710
0.555230
0.530790
0.504400
0.480940
0.459430
0.435970
0.412510
0.391010
0.371460
0.353860
0.340180
0.328450
0.318670
0.311830
0.306940
0.304010
0.303030
0.303030
0.303030
0.303030
0.303030
0.303030
0.302050
0.301080
0.300100
0.299120
0.297170
0.296190
0.296190
0.295210
0.295210
0.293260
0.292280
0.289350
0.287390
0.283480
0.280550
0.277610
0.273700
0.269790
0.266860
0.263930
0.261000
0.258060
0.253180
0.249270
0.245360
0.244380
0.248290
0.257090
0.274680
0.301080
0.337240
0.376340
0.413490
0.456500
0.499510
0.540570
0.576740
0.606060
0.627570
0.642230
0.649070
0.649070
0.644180
0.635390
0.623660
0.608020
0.587490
0.565000
0.540570
0.514170
0.487780
0.460410
0.435000
0.411530
0.391010
0.373410
0.359730
0.350930
0.342130
0.335290
0.331380
0.328450
0.327470
0.327470
0.328450
0.330400
0.331380
0.332360
0.333330
0.333330
0.332360
0.331380
0.329420
0.326490
0.323560
0.319650
0.316720
0.312810
0.309870
0.305960
0.303030
0.301080
0.300100
0.300100
0.302050
0.307920
0.318670
0.333330
0.353860
0.378300
0.405670
0.434020
0.461390
0.483870
0.501470
0.517110
0.528840
0.534700
0.534700
0.528840
0.518080
0.503420
0.483870
0.463340
0.440860
0.420330
0.402740
0.382210
0.363640
0.345060
0.330400
0.317690
0.306940
0.300100
0.295210
0.291300
0.289350
0.288370
0.287390
0.288370
0.288370
0.288370
0.288370
0.287390
0.287390
0.286410
0.286410
0.285430
0.285430
0.284460
0.284460
0.285430
0.285430
0.284460
0.284460
0.284460
0.284460
0.284460
0.284460
0.285430
0.285430
0.286410
0.286410
0.287390
0.289350
0.290320
0.290320
0.289350
0.289350
0.289350
0.288370
0.287390
0.287390
0.286410
0.284460
0.283480
0.282500
0.281520
0.280550
0.282500
0.289350
0.304010
0.328450
0.363640
0.408600
0.461390
0.519060
0.577710
0.627570
0.670580
0.711630
0.748780
0.777130
0.797650
0.809380
0.814270
0.812320
0.806450
0.795700
0.782010
0.766370
0.747800
0.726300
0.702830
0.675460
0.648090
0.618770
0.590420
0.563050
0.537630
0.515150
0.495600
0.479960
0.468230
0.460410
0.453570
0.449660
0.446730
0.444770
0.443790
0.443790
0.442820
0.442820
0.440860
0.439880
0.437930
0.436950
0.434020
0.432060
0.429130
0.426200
0.423260
0.420330
0.417400
0.413490
0.410560
0.406650
0.403710
0.401760
0.398830
0.395890
0.392960
0.389050
0.385140
0.380250
0.375370
0.371460
0.367550
0.367550
0.371460
0.379280
0.392960
0.417400
0.450640
0.492670
0.540570
0.592380
0.643210
0.691100
0.733140
0.767350
0.793740
0.812320
0.822090
0.825020
0.824050
0.818180
0.809380
0.797650
0.781040
0.761490
0.739980
0.714570
0.687190
0.658850
0.631480
0.606060
0.578690
0.550340
0.523950
0.499510
0.477030
0.459430
0.444770
0.434020
0.426200
0.420330
0.416420
0.414470
0.413490
0.412510
0.410560
0.408600
0.406650
0.403710
0.400780
0.396870
0.392960
0.389050
0.385140
0.382210
0.380250
0.376340
0.373410
0.369500
0.365590
0.351910
0.333330
0.321600
0.312810
0.305960
0.301080
0.296190
0.292280
0.289350
0.286410
0.283480
0.283480
0.286410
0.294230
0.309870
0.334310
0.366570
0.404690
0.447700
0.485830
0.521020
0.556210
0.588470
0.615840
0.635390
0.647120
0.652980
0.652980
0.648090
0.639300
0.627570
0.614860
0.599220
0.581620
0.561090
0.537630
0.513200
0.487780
0.461390
0.435000
0.409580
0.387100
0.366570
0.348970
0.336270
0.325510
0.317690
0.310850
0.304990
0.302050
0.300100
0.300100
0.300100
0.301080
0.301080
0.301080
0.300100
0.299120
0.298140
0.295210
0.293260
0.290320
0.288370
0.285430
0.283480
0.281520
0.278590
0.275660
0.271750
0.269790
0.268820
0.265880
0.262950
0.259040
0.254150
0.249270
0.244380
0.238510
0.233630
0.230690
0.231670
0.235580
0.245360
0.261000
0.285430
0.316720
0.352880
0.393940
0.435000
0.474100
0.510260
0.540570
0.564030
0.580650
0.590420
0.594330
0.594330
0.590420
0.582600
0.570870
0.556210
0.538610
0.517110
0.493650
0.468230
0.442820
0.420330
0.399800
0.379280
0.358750
0.340180
0.324540
0.311830
0.302050
0.295210
0.289350
0.286410
0.284460
0.283480
0.283480
0.283480
0.284460
0.285430
0.285430
0.285430
0.285430
0.284460
0.282500
0.280550
0.278590
0.275660
0.274680
0.272730
0.270770
0.267840
0.265880
0.262950
0.260020
0.256110
0.253180
0.250240
0.246330
0.243400
0.239490
0.236560
0.234600
0.231670
0.229720
0.229720
0.232650
0.242420
0.258060
0.280550
0.311830
0.349950
0.391980
0.430110
0.465300
0.502440
0.537630
0.567940
0.590420
0.607040
0.615840
0.618770
0.615840
0.608020
0.596290
0.581620
0.565980
0.549360
0.528840
0.506350
0.481920
0.456500
0.432060
0.407620
0.386120
0.366570
0.349950
0.336270
0.327470
0.320630
0.315740
0.312810
0.310850
0.309870
0.309870
0.309870
0.309870
0.309870
0.309870
0.308900
0.307920
0.306940
0.305960
0.304990
0.303030
0.301080
0.299120
0.298140
0.296190
0.294230
0.291300
0.288370
0.285430
0.282500
0.279570
0.275660
0.271750
0.267840
0.262950
0.259040
0.254150
0.250240
0.246330
0.244380
0.245360
0.252200
0.261970
0.278590
0.303030
0.336270
0.375370
0.418380
0.463340
0.505380
0.543500
0.575760
0.600200
0.617790
0.627570
0.630500
0.630500
0.624630
0.614860
0.602150
0.585530
0.565980
0.543500
0.520040
0.495600
0.470190
0.444770
0.424240
0.404690
0.386120
0.368520
0.352880
0.340180
0.330400
0.324540
0.320630
0.317690
0.317690
0.317690
0.327470
0.343110
0.350930
0.355820
0.358750
0.360700
0.360700
0.361680
0.360700
0.359730
0.359730
0.358750
0.358750
0.357770
0.357770
0.356790
0.354840
0.352880
0.351910
0.349950
0.347020
0.345060
0.342130
0.339200
0.336270
0.333330
0.330400
0.328450
0.328450
0.330400
0.339200
0.355820
0.381230
0.416420
0.460410
0.511240
0.565000
0.612900
0.654940
0.697950
0.737050
0.770280
0.794720
0.810360
0.819160
0.822090
0.818180
0.809380
0.796680
0.780060
0.761490
0.741940
0.718480
0.692080
0.663730
0.633430
0.603130
0.573800
0.545450
0.519060
0.496580
0.478010
0.463340
0.453570
0.445750
0.439880
0.435970
0.433040
0.432060
0.432060
0.432060
0.431090
0.431090
0.430110
0.428150
0.427170
0.425220
0.423260
0.421310
0.418380
0.415440
0.411530
0.408600
0.405670
0.402740
0.398830
0.394920
0.391980
0.389050
0.386120
0.381230
0.377320
0.371460
0.366570
0.361680
0.356790
0.354840
0.356790
0.364610
0.381230
0.401760
0.428150
0.467250
0.515150
0.567940
0.622680
0.675460
0.723360
0.763440
0.794720
0.818180
0.832840
0.838710
0.838710
0.833820
0.826000
0.813290
0.797650
0.778100
0.754640
0.729230
0.700880
0.670580
0.637340
0.605080
0.575760
0.549360
0.521020
0.493650
0.469210
0.448680
0.431090
0.417400
0.406650
0.398830
0.393940
0.390030
0.388070
0.387100
0.386120
0.384160
0.382210
0.379280
0.376340
0.372430
0.368520
0.364610
0.359730
0.355820
0.351910
0.348000
0.345060
0.341150
0.337240
0.332360
0.328450
0.322580
0.317690
0.312810
0.307920
0.302050
0.296190
0.292280
0.288370
0.284460
0.281520
0.283480
0.292280
0.308900
0.334310
0.370480
0.413490
0.462370
0.513200
0.563050
0.604110
0.637340
0.667640
0.692080
0.709680
0.719450
0.722390
0.719450
0.711630
0.698920
0.682310
0.661780
0.641250
0.619750
0.594330
0.566960
0.537630
0.507330
0.478010
0.450640
0.424240
0.400780
0.381230
0.364610
0.350930
0.341150
0.335290
0.329420
0.324540
0.320630
0.317690
0.315740
0.313780
0.311830
0.309870
0.307920
0.304990
0.304010
0.303030
0.301080
0.298140
0.296190
0.293260
0.290320
0.287390
0.284460
0.281520
0.278590
0.274680
0.271750
0.268820
0.266860
0.264910
0.261000
0.257090
0.253180
0.249270
0.245360
0.243400
0.245360
0.253180
0.267840
0.287390
0.312810
0.348000
0.391980
0.440860
0.491690
0.540570
0.585530
0.624630
0.654940
0.676440
0.690130
0.696970
0.696970
0.691100
0.680350
0.665690
0.647120
0.624630
0.588470
0.544480
0.509290
0.479960
0.452590
0.427170
0.407620
0.390030
0.373410
0.358750
0.346040
0.336270
0.329420
0.324540
0.321600
0.319650
0.318670
0.318670
0.318670
0.318670
0.318670
0.318670
0.317690
0.315740
0.313780
0.312810
0.310850
0.309870
0.308900
0.306940
0.305960
0.305960
0.304990
0.304010
0.302050
0.300100
0.297170
0.294230
0.290320
0.287390
0.283480
0.280550
0.276640
0.273700
0.272730
0.270770
0.271750
0.276640
0.287390
0.304990
0.330400
0.363640
0.402740
0.444770
0.488760
0.529810
0.563050
0.589440
0.613880
0.633430
0.647120
0.653960
0.655910
0.652980
0.645160
0.633430
0.618770
0.602150
0.584560
0.565980
0.545450
0.521990
0.498530
0.475070
0.452590
0.432060
0.412510
0.396870
0.382210
0.370480
0.361680
0.354840
0.350930
0.348000
0.345060
0.344090
0.343110
0.342130
0.341150
0.339200
0.338220
0.336270
0.333330
0.332360
0.330400
0.328450
0.326490
0.324540
0.321600
0.319650
0.316720
0.313780
0.310850
0.307920
0.304990
0.302050
0.300100
0.297170
0.294230
0.290320
0.285430
0.280550
0.275660
0.272730
0.272730
0.276640
0.287390
0.305960
0.328450
0.354840
0.390030
0.431090
0.474100
0.518080
0.557180
0.592380
0.619750
0.640270
0.653960
0.660800
0.661780
0.658850
0.652000
0.642230
0.629520
0.612900
0.594330
0.573800
0.551320
0.526880
0.501470
0.476050
0.451610
0.431090
0.414470
0.396870
0.381230
0.368520
0.357770
0.349950
0.344090
0.340180
0.338220
0.336270
0.335290
0.335290
0.335290
0.336270
0.336270
0.336270
0.336270
0.335290
0.334310
0.333330
0.333330
0.332360
0.332360
0.331380
0.331380
0.330400
0.329420
0.327470
0.324540
0.321600
0.317690
0.314760
0.311830
0.308900
0.304990
0.302050
0.299120
0.297170
0.299120
0.304010
0.314760
0.332360
0.359730
0.393940
0.435000
0.479960
0.526880
0.570870
0.611930
0.642230
0.665690
0.685240
0.698920
0.707720
0.711630
0.709680
0.704790
0.695010
0.682310
0.665690
0.647120
0.627570
0.608020
0.585530
0.561090
0.535680
0.511240
0.486800
0.465300
0.445750
0.428150
0.414470
0.403710
0.395890
0.391010
0.388070
0.387100
0.386120
0.386120
0.386120
0.386120
0.386120
0.386120
0.385140
0.383190
0.382210
0.381230
0.379280
0.377320
0.374390
0.371460
0.368520
0.365590
0.362660
0.359730
0.356790
0.352880
0.349950
0.346040
0.343110
0.340180
0.337240
0.333330
0.330400
0.327470
0.326490
0.328450
0.335290
0.348970
0.370480
0.399800
0.430110
0.465300
0.511240
0.561090
0.609970
0.653960
0.692080
0.723360
0.745850
0.760510
0.768330
0.770280
0.767350
0.760510
0.750730
0.737050
0.720430
0.699900
0.676440
0.649070
0.620720
0.589440
0.557180
0.525900
0.495600
0.471160
0.449660
0.429130
0.410560
0.394920
0.382210
0.372430
0.365590
0.360700
0.356790
0.353860
0.350930
0.348970
0.347020
0.346040
0.344090
0.342130
0.339200
0.336270
0.333330
0.329420
0.325510
0.320630
0.315740
0.310850
0.306940
0.303030
0.299120
0.295210
0.290320
0.285430
0.281520
0.276640
0.271750
0.266860
0.261970
0.258060
0.255130
0.256110
0.260020
0.270770
0.289350
0.316720
0.352880
0.396870
0.445750
0.495600
0.544480
0.588470
0.626590
0.652980
0.670580
0.685240
0.693060
0.695990
0.693060
0.686220
0.675460
0.659820
0.642230
0.620720
0.595310
0.567940
0.542520
0.517110
0.489740
0.460410
0.433040
0.407620
0.385140
0.364610
0.348970
0.336270
0.326490
0.318670
0.314760
0.311830
0.309870
0.307920
0.306940
0.304990
0.304010
0.303030
0.301080
0.300100
0.298140
0.296190
0.295210
0.293260
0.293260
0.291300
0.289350
0.286410
0.283480
0.279570
0.275660
0.270770
0.265880
0.261000
0.256110
0.252200
0.248290
0.243400
0.238510
0.232650
0.227760
0.225810
0.228740
0.237540
0.254150
0.280550
0.315740
0.358750
0.399800
0.439880
0.485830
0.531770
0.573800
0.608990
0.636360
0.654940
0.666670
0.670580
0.668620
0.661780
0.652000
0.639300
0.622680
0.602150
0.578690
0.553270
0.524930
0.496580
0.467250
0.438910
0.412510
0.388070
0.366570
0.350930
0.338220
0.326490
0.317690
0.310850
0.305960
0.303030
0.302050
0.301080
0.300100
0.299120
0.298140
0.297170
0.296190
0.295210
0.293260
0.291300
0.289350
0.286410
0.284460
0.281520
0.278590
0.275660
0.272730
0.270770
0.268820
0.265880
0.261970
0.258060
0.254150
0.250240
0.245360
0.240470
0.235580
0.231670
0.228740
0.227760
0.231670
0.240470
0.258060
0.283480
0.318670
0.361680
0.410560
0.462370
0.513200
0.561090
0.602150
0.636360
0.660800
0.675460
0.686220
0.691100
0.691100
0.685240
0.675460
0.660800
0.643210
0.621700
0.597260
0.569890
0.542520
0.516130
0.492670
0.467250
0.441840
0.418380
0.396870
0.379280
0.364610
0.352880
0.344090
0.337240
0.332360
0.330400
0.328450
0.327470
0.326490
0.324540
0.323560
0.321600
0.319650
0.317690
0.314760
0.312810
0.310850
0.308900
0.306940
0.304990
0.303030
0.301080
0.298140
0.295210
0.292280
0.294230
0.298140
0.298140
0.296190
0.292280
0.289350
0.285430
0.281520
0.277610
0.274680
0.274680
0.280550
0.292280
0.311830
0.340180
0.377320
0.420330
0.467250
0.509290
0.546430
0.585530
0.620720
0.652000
0.675460
0.692080
0.702830
0.706740
0.704790
0.698920
0.689150
0.677420
0.662760
0.644180
0.623660
0.599220
0.573800
0.546430
0.519060
0.492670
0.467250
0.444770
0.424240
0.407620
0.393940
0.385140
0.376340
0.370480
0.365590
0.362660
0.360700
0.358750
0.357770
0.355820
0.354840
0.353860
0.352880
0.352880
0.351910
0.349950
0.348970
0.347020
0.345060
0.343110
0.340180
0.338220
0.336270
0.334310
0.332360
0.330400
0.328450
0.326490
0.323560
0.320630
0.316720
0.312810
0.308900
0.304990
0.304010
0.307920
0.316720
0.329420
0.348970
0.378300
0.416420
0.461390
0.509290
0.559140
0.606060
0.649070
0.685240
0.713590
0.735090
0.748780
0.755620
0.756600
0.753670
0.746820
0.738030
0.724340
0.708700
0.690130
0.668620
0.644180
0.618770
0.591400
0.566960
0.545450
0.521990
0.499510
0.478980
0.461390
0.445750
0.434020
0.424240
0.417400
0.412510
0.409580
0.407620
0.406650
0.405670
0.403710
0.402740
0.400780
0.397850
0.394920
0.392960
0.391010
0.388070
0.385140
0.382210
0.380250
0.377320
0.374390
0.370480
0.366570
0.362660
0.359730
0.355820
0.351910
0.348000
0.343110
0.338220
0.333330
0.330400
0.327470
0.327470
0.331380
0.340180
0.357770
0.383190
0.417400
0.459430
0.506350
0.555230
0.603130
0.641250
0.673510
0.703810
0.729230
0.749760
0.762460
0.770280
0.771260
0.768330
0.761490
0.749760
0.735090
0.719450
0.700880
0.678400
0.652980
0.625610
0.596290
0.566960
0.538610
0.511240
0.484850
0.462370
0.441840
0.425220
0.413490
0.404690
0.396870
0.390030
0.385140
0.381230
0.377320
0.374390
0.370480
0.367550
0.365590
0.362660
0.360700
0.358750
0.355820
0.352880
0.349950
0.346040
0.343110
0.339200
0.335290
0.331380
0.327470
0.323560
0.318670
0.314760
0.310850
0.305960
0.301080
0.295210
0.289350
0.284460
0.280550
0.278590
0.281520
0.290320
0.307920
0.329420
0.355820
0.391010
0.434020
0.478980
0.525900
0.568910
0.607040
0.639300
0.664710
0.682310
0.693060
0.696970
0.695990
0.691100
0.682310
0.670580
0.654940
0.637340
0.615840
0.591400
0.565980
0.538610
0.510260
0.481920
0.458460
0.436950
0.415440
0.395890
0.378300
0.364610
0.352880
0.344090
0.337240
0.332360
0.329420
0.327470
0.325510
0.325510
0.318670
0.309870
0.304010
0.300100
0.297170
0.294230
0.291300
0.288370
0.285430
0.282500
0.279570
0.277610
0.275660
0.273700
0.270770
0.266860
0.263930
0.260020
0.256110
0.252200
0.247310
0.242420
0.236560
0.230690
0.227760
0.226780
0.227760
0.233630
0.247310
0.268820
0.298140
0.335290
0.378300
0.423260
0.469210
0.512220
0.546430
0.571850
0.596290
0.614860
0.627570
0.634410
0.635390
0.631480
0.622680
0.608990
0.593350
0.573800
0.552300
0.530790
0.509290
0.484850
0.459430
0.434020
0.409580
0.387100
0.366570
0.348000
0.333330
0.320630
0.311830
0.305960
0.302050
0.299120
0.297170
0.295210
0.294230
0.294230
0.293260
0.292280
0.291300
0.290320
0.288370
0.286410
0.285430
0.284460
0.283480
0.281520
0.279570
0.277610
0.275660
0.274680
0.271750
0.269790
0.266860
0.264910
0.262950
0.261000
0.259040
0.256110
0.253180
0.250240
0.248290
0.248290
0.252200
0.262950
0.281520
0.307920
0.343110
0.378300
0.415440
0.459430
0.505380
0.549360
0.589440
0.622680
0.648090
0.666670
0.678400
0.684260
0.684260
0.679370
0.671550
0.660800
0.646140
0.628540
0.607040
0.584560
0.560120
0.534700
0.509290
0.484850
0.462370
0.439880
0.422290
0.410560
0.398830
0.389050
0.381230
0.375370
0.370480
0.368520
0.366570
0.365590
0.364610
0.364610
0.363640
0.363640
0.362660
0.361680
0.359730
0.358750
0.356790
0.354840
0.352880
0.350930
0.348970
0.347020
0.345060
0.343110
0.341150
0.338220
0.335290
0.331380
0.328450
0.324540
0.321600
0.317690
0.313780
0.310850
0.309870
0.311830
0.317690
0.329420
0.349950
0.379280
0.415440
0.458460
0.505380
0.553270
0.599220
0.639300
0.674490
0.698920
0.714570
0.727270
0.735090
0.737050
0.735090
0.729230
0.718480
0.704790
0.688170
0.668620
0.646140
0.621700
0.599220
0.575760
0.550340
0.523950
0.498530
0.474100
0.452590
0.433040
0.417400
0.404690
0.393940
0.387100
0.381230
0.378300
0.375370
0.373410
0.372430
0.370480
0.368520
0.366570
0.364610
0.361680
0.357770
0.353860
0.349950
0.347020
0.344090
0.340180
0.336270
0.331380
0.326490
0.321600
0.315740
0.309870
0.304990
0.299120
0.294230
0.289350
0.285430
0.280550
0.274680
0.268820
0.265880
0.265880
0.271750
0.285430
0.307920
0.338220
0.375370
0.417400
0.456500
0.492670
0.531770
0.567940
0.600200
0.626590
0.645160
0.657870
0.663730
0.664710
0.659820
0.650050
0.639300
0.625610
0.608020
0.580650
0.554250
0.533720
0.509290
0.481920
0.459430
0.439880
0.419350
0.399800
0.381230
0.366570
0.355820
0.346040
0.338220
0.331380
0.326490
0.323560
0.320630
0.318670
0.317690
0.315740
0.314760
0.313780
0.312810
0.310850
0.307920
0.304990
0.301080
0.298140
0.294230
0.291300
0.287390
0.284460
0.280550
0.276640
0.274680
0.271750
0.269790
0.266860
0.262950
0.259040
0.256110
0.252200
0.248290
0.246330
0.246330
0.250240
0.257090
0.269790
0.290320
0.318670
0.353860
0.394920
0.438910
0.482890
0.523950
0.560120
0.591400
0.614860
0.630500
0.639300
0.643210
0.642230
0.637340
0.628540
0.616810
0.601170
0.582600
0.562070
0.538610
0.514170
0.487780
0.465300
0.444770
0.423260
0.401760
0.382210
0.365590
0.351910
0.341150
0.332360
0.326490
0.321600
0.318670
0.316720
0.315740
0.315740
0.314760
0.313780
0.312810
0.310850
0.308900
0.305960
0.303030
0.301080
0.298140
0.296190
0.294230
0.293260
0.292280
0.290320
0.288370
0.285430
0.282500
0.279570
0.276640
0.272730
0.268820
0.264910
0.261000
0.259040
0.256110
0.253180
0.253180
0.257090
0.266860
0.283480
0.308900
0.342130
0.381230
0.425220
0.470190
0.509290
0.543500
0.577710
0.608020
0.631480
0.649070
0.659820
0.664710
0.664710
0.658850
0.649070
0.635390
0.619750
0.603130
0.582600
0.560120
0.534700
0.509290
0.483870
0.458460
0.435000
0.414470
0.395890
0.380250
0.367550
0.357770
0.350930
0.346040
0.342130
0.339200
0.337240
0.336270
0.335290
0.334310
0.333330
0.332360
0.331380
0.330400
0.330400
0.329420
0.327470
0.325510
0.322580
0.320630
0.318670
0.315740
0.312810
0.309870
0.306940
0.303030
0.300100
0.297170
0.294230
0.289350
0.284460
0.280550
0.276640
0.272730
0.271750
0.273700
0.281520
0.297170
0.315740
0.339200
0.372430
0.412510
0.456500
0.512220
0.561090
0.594330
0.624630
0.651030
0.670580
0.684260
0.692080
0.693060
0.690130
0.682310
0.672530
0.657870
0.640270
0.613880
0.587490
0.566960
0.543500
0.511240
0.481920
0.464320
0.447700
