0.449510
0.449510
0.449510
0.449510
0.444580
0.449510
0.449510
0.449510
0.444580
0.439660
0.439660
0.449510
0.460590
0.480300
0.495070
0.509850
0.545570
0.565270
0.570200
0.565270
0.545570
0.514780
0.480300
0.444580
0.419950
0.410100
0.405170
0.405170
0.405170
0.410100
0.410100
0.410100
0.424880
0.465520
0.575120
0.769700
0.975370
1.009900
0.750000
0.504930
0.385470
0.369460
0.380540
0.390390
0.395320
0.395320
0.400250
0.410100
0.415020
0.419950
0.429800
0.434730
0.444580
0.454430
0.460590
0.470440
0.480300
0.500000
0.519700
0.545570
0.575120
0.604680
0.630540
0.650250
0.660100
0.665020
0.645320
0.619460
0.580050
0.545570
0.514780
0.480300
0.454430
0.439660
0.429800
0.424880
0.424880
0.424880
0.424880
0.424880
0.429800
0.434730
0.439660
0.444580
0.449510
0.449510
0.449510
0.449510
0.454430
0.454430
0.454430
0.454430
0.454430
0.454430
0.454430
0.465520
0.480300
0.495070
0.504930
0.534480
0.565270
0.575120
0.570200
0.560340
0.539410
0.514780
0.480300
0.449510
0.434730
0.424880
0.419950
0.419950
0.419950
0.424880
0.424880
0.429800
0.460590
0.529560
0.684730
0.910100
1.050500
0.924880
0.645320
0.444580
0.385470
0.385470
0.395320
0.400250
0.410100
0.415020
0.419950
0.429800
0.434730
0.444580
0.454430
0.460590
0.475370
0.485220
0.495070
0.500000
0.514780
0.529560
0.550490
0.580050
0.604680
0.635470
0.665020
0.679800
0.684730
0.674880
0.650250
0.619460
0.584980
0.545570
0.509850
0.480300
0.460590
0.449510
0.439660
0.434730
0.434730
0.434730
0.434730
0.439660
0.439660
0.444580
0.449510
0.454430
0.454430
0.449510
0.449510
0.449510
0.449510
0.444580
0.439660
0.439660
0.439660
0.434730
0.439660
0.449510
0.465520
0.475370
0.485220
0.509850
0.539410
0.550490
0.545570
0.539410
0.519700
0.490150
0.454430
0.424880
0.410100
0.400250
0.395320
0.395320
0.395320
0.395320
0.395320
0.400250
0.439660
0.529560
0.699510
0.924880
1.004900
0.820200
0.550490
0.395320
0.349750
0.354680
0.359610
0.364530
0.364530
0.375620
0.385470
0.390390
0.400250
0.410100
0.415020
0.424880
0.434730
0.444580
0.454430
0.465520
0.480300
0.500000
0.524630
0.550490
0.580050
0.609610
0.630540
0.650250
0.655170
0.640390
0.619460
0.584980
0.545570
0.509850
0.475370
0.444580
0.424880
0.415020
0.410100
0.405170
0.405170
0.410100
0.410100
0.410100
0.415020
0.419950
0.419950
0.424880
0.429800
0.429800
0.429800
0.434730
0.434730
0.429800
0.429800
0.429800
0.429800
0.429800
0.434730
0.449510
0.465520
0.480300
0.500000
0.534480
0.560340
0.555420
0.550490
0.529560
0.504930
0.470440
0.429800
0.415020
0.405170
0.395320
0.395320
0.395320
0.395320
0.395320
0.400250
0.415020
0.465520
0.584980
0.795570
0.985220
1.004900
0.694580
0.460590
0.359610
0.349750
0.359610
0.364530
0.375620
0.380540
0.385470
0.395320
0.400250
0.410100
0.419950
0.429800
0.434730
0.439660
0.454430
0.465520
0.480300
0.500000
0.519700
0.545570
0.575120
0.604680
0.630540
0.650250
0.660100
0.665020
0.645320
0.619460
0.584980
0.539410
0.504930
0.475370
0.449510
0.434730
0.429800
0.424880
0.424880
0.424880
0.429800
0.424880
0.424880
0.429800
0.434730
0.439660
0.439660
0.439660
0.439660
0.439660
0.439660
0.439660
0.434730
0.434730
0.439660
0.439660
0.439660
0.449510
0.470440
0.485220
0.495070
0.519700
0.555420
0.565270
0.560340
0.550490
0.524630
0.500000
0.460590
0.429800
0.419950
0.410100
0.410100
0.405170
0.400250
0.400250
0.400250
0.410100
0.439660
0.514780
0.669950
0.890390
1.004900
0.859610
0.584980
0.410100
0.354680
0.364530
0.380540
0.385470
0.390390
0.395320
0.400250
0.405170
0.415020
0.424880
0.429800
0.439660
0.449510
0.454430
0.465520
0.480300
0.495070
0.514780
0.534480
0.560340
0.589900
0.619460
0.645320
0.660100
0.669950
0.655170
0.635470
0.599750
0.560340
0.524630
0.495070
0.465520
0.444580
0.434730
0.434730
0.429800
0.429800
0.429800
0.429800
0.429800
0.434730
0.434730
0.439660
0.439660
0.439660
0.444580
0.439660
0.439660
0.444580
0.449510
0.449510
0.449510
0.449510
0.449510
0.460590
0.475370
0.490150
0.500000
0.524630
0.560340
0.575120
0.565270
0.560340
0.539410
0.509850
0.475370
0.444580
0.419950
0.415020
0.415020
0.415020
0.415020
0.410100
0.410100
0.415020
0.429800
0.490150
0.614530
0.820200
0.995070
1.004900
0.689660
0.470440
0.385470
0.375620
0.390390
0.395320
0.395320
0.400250
0.410100
0.419950
0.429800
0.439660
0.449510
0.454430
0.460590
0.465520
0.475370
0.485220
0.500000
0.514780
0.534480
0.560340
0.589900
0.624380
0.655170
0.669950
0.679800
0.674880
0.655170
0.624380
0.589900
0.555420
0.519700
0.490150
0.470440
0.460590
0.449510
0.444580
0.444580
0.444580
0.449510
0.449510
0.454430
0.454430
0.460590
0.465520
0.465520
0.465520
0.465520
0.465520
0.465520
0.465520
0.465520
0.470440
0.470440
0.470440
0.475370
0.490150
0.504930
0.514780
0.524630
0.560340
0.584980
0.589900
0.584980
0.570200
0.545570
0.514780
0.480300
0.454430
0.444580
0.439660
0.434730
0.434730
0.434730
0.434730
0.434730
0.454430
0.504930
0.624380
0.834980
1.044300
1.080000
0.774630
0.524630
0.405170
0.385470
0.390390
0.390390
0.395320
0.395320
0.400250
0.405170
0.410100
0.419950
0.429800
0.429800
0.434730
0.439660
0.454430
0.465520
0.475370
0.490150
0.509850
0.534480
0.560340
0.589900
0.619460
0.635470
0.645320
0.650250
0.630540
0.604680
0.565270
0.524630
0.490150
0.460590
0.439660
0.419950
0.410100
0.405170
0.405170
0.410100
0.410100
0.415020
0.419950
0.419950
0.424880
0.429800
0.429800
0.434730
0.434730
0.434730
0.434730
0.434730
0.434730
0.434730
0.434730
0.434730
0.439660
0.454430
0.475370
0.485220
0.500000
0.534480
0.550490
0.550490
0.545570
0.524630
0.500000
0.460590
0.429800
0.410100
0.400250
0.395320
0.395320
0.395320
0.395320
0.395320
0.395320
0.410100
0.465520
0.589900
0.800490
0.980300
0.985220
0.665020
0.444580
0.354680
0.344830
0.359610
0.364530
0.369460
0.375620
0.380540
0.385470
0.395320
0.400250
0.410100
0.415020
0.419950
0.429800
0.439660
0.454430
0.470440
0.485220
0.504930
0.534480
0.565270
0.594830
0.619460
0.635470
0.650250
0.650250
0.630540
0.599750
0.565270
0.529560
0.495070
0.465520
0.444580
0.424880
0.415020
0.410100
0.410100
0.410100
0.415020
0.415020
0.415020
0.419950
0.419950
0.424880
0.429800
0.429800
0.434730
0.434730
0.429800
0.429800
0.434730
0.429800
0.429800
0.429800
0.434730
0.449510
0.470440
0.480300
0.495070
0.534480
0.560340
0.560340
0.550490
0.534480
0.509850
0.475370
0.439660
0.415020
0.405170
0.400250
0.400250
0.400250
0.395320
0.395320
0.400250
0.415020
0.454430
0.560340
0.759850
0.965520
1.004900
0.735220
0.490150
0.375620
0.354680
0.364530
0.369460
0.375620
0.375620
0.380540
0.385470
0.390390
0.400250
0.405170
0.415020
0.424880
0.434730
0.439660
0.454430
0.465520
0.480300
0.500000
0.529560
0.560340
0.589900
0.619460
0.635470
0.650250
0.655170
0.640390
0.614530
0.580050
0.539410
0.504930
0.475370
0.449510
0.434730
0.424880
0.419950
0.415020
0.419950
0.419950
0.419950
0.419950
0.419950
0.424880
0.429800
0.424880
0.429800
0.429800
0.429800
0.429800
0.434730
0.434730
0.434730
0.434730
0.434730
0.439660
0.454430
0.470440
0.480300
0.500000
0.534480
0.560340
0.565270
0.555420
0.539410
0.514780
0.485220
0.449510
0.424880
0.410100
0.405170
0.400250
0.400250
0.395320
0.395320
0.400250
0.410100
0.454430
0.555420
0.740150
0.949510
0.995070
0.750000
0.490150
0.364530
0.344830
0.354680
0.364530
0.369460
0.375620
0.385470
0.395320
0.400250
0.410100
0.419950
0.424880
0.434730
0.439660
0.444580
0.454430
0.470440
0.490150
0.509850
0.534480
0.565270
0.599750
0.624380
0.640390
0.655170
0.655170
0.640390
0.614530
0.580050
0.545570
0.509850
0.480300
0.454430
0.434730
0.424880
0.419950
0.419950
0.419950
0.419950
0.424880
0.429800
0.429800
0.434730
0.439660
0.439660
0.439660
0.444580
0.449510
0.449510
0.449510
0.449510
0.449510
0.449510
0.449510
0.454430
0.465520
0.485220
0.495070
0.504930
0.539410
0.565270
0.570200
0.565270
0.560340
0.534480
0.504930
0.470440
0.444580
0.429800
0.429800
0.424880
0.419950
0.419950
0.419950
0.419950
0.434730
0.475370
0.580050
0.774630
0.985220
1.034500
0.795570
0.534480
0.405170
0.375620
0.385470
0.390390
0.395320
0.400250
0.415020
0.419950
0.429800
0.439660
0.449510
0.460590
0.465520
0.470440
0.480300
0.490150
0.500000
0.514780
0.539410
0.570200
0.599750
0.630540
0.655170
0.674880
0.689660
0.694580
0.679800
0.650250
0.614530
0.570200
0.534480
0.500000
0.475370
0.460590
0.449510
0.439660
0.439660
0.439660
0.439660
0.439660
0.444580
0.449510
0.449510
0.454430
0.454430
0.460590
0.460590
0.460590
0.454430
0.454430
0.454430
0.454430
0.454430
0.449510
0.449510
0.460590
0.475370
0.485220
0.495070
0.514780
0.545570
0.560340
0.550490
0.545570
0.524630
0.500000
0.460590
0.429800
0.415020
0.410100
0.410100
0.410100
0.405170
0.400250
0.405170
0.410100
0.439660
0.514780
0.674880
0.895320
1.019700
0.869460
0.589900
0.410100
0.349750
0.354680
0.364530
0.364530
0.369460
0.375620
0.385470
0.395320
0.400250
0.410100
0.415020
0.424880
0.434730
0.439660
0.454430
0.465520
0.480300
0.500000
0.519700
0.545570
0.580050
0.609610
0.635470
0.650250
0.655170
0.650250
0.624380
0.594830
0.560340
0.519700
0.490150
0.454430
0.434730
0.424880
0.419950
0.415020
0.415020
0.415020
0.415020
0.419950
0.419950
0.424880
0.429800
0.429800
0.434730
0.434730
0.434730
0.434730
0.434730
0.429800
0.429800
0.429800
0.429800
0.429800
0.439660
0.454430
0.470440
0.480300
0.509850
0.545570
0.560340
0.560340
0.550490
0.524630
0.495070
0.460590
0.429800
0.410100
0.405170
0.400250
0.400250
0.400250
0.395320
0.395320
0.400250
0.424880
0.480300
0.604680
0.815270
0.990150
0.924880
0.665020
0.449510
0.359610
0.349750
0.364530
0.369460
0.375620
0.385470
0.390390
0.395320
0.400250
0.410100
0.419950
0.424880
0.434730
0.439660
0.449510
0.460590
0.475370
0.495070
0.519700
0.545570
0.580050
0.604680
0.630540
0.645320
0.655170
0.650250
0.635470
0.604680
0.575120
0.534480
0.500000
0.470440
0.449510
0.439660
0.429800
0.424880
0.419950
0.419950
0.419950
0.424880
0.429800
0.429800
0.429800
0.434730
0.439660
0.439660
0.439660
0.439660
0.439660
0.439660
0.439660
0.439660
0.439660
0.439660
0.449510
0.460590
0.480300
0.490150
0.509850
0.545570
0.565270
0.570200
0.560340
0.545570
0.519700
0.480300
0.444580
0.424880
0.415020
0.410100
0.405170
0.405170
0.400250
0.400250
0.405170
0.424880
0.470440
0.584980
0.784480
0.980300
1.000000
0.704430
0.470440
0.369460
0.359610
0.375620
0.380540
0.385470
0.390390
0.395320
0.400250
0.410100
0.415020
0.419950
0.429800
0.434730
0.449510
0.454430
0.465520
0.480300
0.500000
0.524630
0.545570
0.580050
0.609610
0.630540
0.650250
0.655170
0.660100
0.645320
0.619460
0.584980
0.545570
0.514780
0.480300
0.460590
0.449510
0.434730
0.429800
0.429800
0.429800
0.429800
0.429800
0.429800
0.434730
0.439660
0.444580
0.444580
0.449510
0.449510
0.449510
0.454430
0.454430
0.449510
0.449510
0.449510
0.449510
0.454430
0.470440
0.485220
0.495070
0.509850
0.545570
0.565270
0.570200
0.560340
0.545570
0.514780
0.480300
0.444580
0.419950
0.410100
0.410100
0.400250
0.400250
0.400250
0.405170
0.410100
0.424880
0.465520
0.575120
0.759850
0.965520
1.004900
0.735220
0.490150
0.380540
0.364530
0.369460
0.380540
0.385470
0.390390
0.400250
0.410100
0.415020
0.419950
0.429800
0.439660
0.449510
0.454430
0.465520
0.480300
0.495070
0.509850
0.534480
0.560340
0.589900
0.619460
0.645320
0.665020
0.679800
0.679800
0.665020
0.635470
0.604680
0.565270
0.529560
0.500000
0.475370
0.460590
0.449510
0.444580
0.444580
0.439660
0.444580
0.449510
0.454430
0.454430
0.454430
0.454430
0.454430
0.460590
0.460590
0.460590
0.465520
0.465520
0.460590
0.460590
0.460590
0.460590
0.460590
0.475370
0.495070
0.504930
0.514780
0.550490
0.575120
0.580050
0.570200
0.560340
0.539410
0.509850
0.475370
0.449510
0.439660
0.434730
0.434730
0.429800
0.429800
0.429800
0.429800
0.439660
0.485220
0.599750
0.805420
1.024600
1.070200
0.805420
0.539410
0.410100
0.385470
0.385470
0.390390
0.395320
0.400250
0.410100
0.415020
0.419950
0.429800
0.429800
0.434730
0.444580
0.449510
0.460590
0.470440
0.485220
0.500000
0.514780
0.539410
0.570200
0.604680
0.630540
0.650250
0.660100
0.660100
0.640390
0.614530
0.580050
0.539410
0.509850
0.475370
0.449510
0.429800
0.419950
0.415020
0.415020
0.410100
0.415020
0.415020
0.419950
0.419950
0.424880
0.429800
0.434730
0.434730
0.434730
0.434730
0.434730
0.434730
0.434730
0.434730
0.434730
0.434730
0.434730
0.449510
0.465520
0.475370
0.490150
0.524630
0.550490
0.555420
0.550490
0.534480
0.509850
0.475370
0.439660
0.415020
0.400250
0.390390
0.390390
0.395320
0.395320
0.395320
0.395320
0.405170
0.444580
0.539410
0.730300
0.949510
1.009900
0.774630
0.514780
0.380540
0.354680
0.359610
0.369460
0.369460
0.375620
0.385470
0.390390
0.400250
0.410100
0.415020
0.419950
0.429800
0.434730
0.449510
0.460590
0.475370
0.490150
0.509850
0.534480
0.560340
0.589900
0.619460
0.635470
0.650250
0.655170
0.640390
0.614530
0.580050
0.545570
0.509850
0.475370
0.449510
0.429800
0.419950
0.419950
0.415020
0.415020
0.415020
0.415020
0.419950
0.424880
0.429800
0.434730
0.439660
0.439660
0.444580
0.449510
0.444580
0.444580
0.444580
0.439660
0.439660
0.439660
0.444580
0.454430
0.470440
0.485220
0.495070
0.524630
0.555420
0.565270
0.560340
0.550490
0.529560
0.500000
0.465520
0.434730
0.424880
0.419950
0.415020
0.415020
0.415020
0.415020
0.415020
0.419950
0.454430
0.534480
0.699510
0.919950
1.009900
0.839900
0.570200
0.405170
0.359610
0.369460
0.380540
0.385470
0.390390
0.400250
0.405170
0.410100
0.415020
0.429800
0.439660
0.449510
0.454430
0.465520
0.480300
0.490150
0.500000
0.519700
0.539410
0.570200
0.604680
0.630540
0.650250
0.669950
0.669950
0.660100
0.630540
0.599750
0.565270
0.529560
0.495070
0.470440
0.454430
0.439660
0.434730
0.429800
0.429800
0.429800
0.429800
0.434730
0.434730
0.434730
0.439660
0.444580
0.449510
0.449510
0.454430
0.449510
0.449510
0.449510
0.449510
0.449510
0.449510
0.449510
0.460590
0.475370
0.490150
0.500000
0.529560
0.560340
0.565270
0.560340
0.550490
0.534480
0.500000
0.460590
0.434730
0.419950
0.415020
0.415020
0.410100
0.410100
0.410100
0.410100
0.419950
0.444580
0.524630
0.684730
0.905170
1.009900
0.849750
0.580050
0.415020
0.364530
0.369460
0.375620
0.385470
0.390390
0.395320
0.400250
0.410100
0.415020
0.429800
0.434730
0.439660
0.449510
0.460590
0.470440
0.480300
0.495070
0.514780
0.539410
0.565270
0.594830
0.624380
0.650250
0.665020
0.674880
0.660100
0.640390
0.609610
0.570200
0.534480
0.500000
0.475370
0.454430
0.439660
0.434730
0.429800
0.429800
0.429800
0.429800
0.434730
0.434730
0.439660
0.444580
0.449510
0.454430
0.454430
0.454430
0.460590
0.460590
0.460590
0.460590
0.454430
0.454430
0.454430
0.465520
0.485220
0.500000
0.509850
0.534480
0.570200
0.584980
0.575120
0.565270
0.545570
0.519700
0.480300
0.449510
0.439660
0.429800
0.429800
0.429800
0.429800
0.429800
0.429800
0.444580
0.470440
0.555420
0.715520
0.939660
1.044300
0.885470
0.604680
0.434730
0.385470
0.390390
0.395320
0.400250
0.405170
0.410100
0.419950
0.424880
0.434730
0.444580
0.454430
0.460590
0.465520
0.475370
0.480300
0.495070
0.514780
0.534480
0.560340
0.584980
0.619460
0.650250
0.669950
0.684730
0.684730
0.674880
0.650250
0.619460
0.580050
0.539410
0.500000
0.475370
0.454430
0.449510
0.444580
0.439660
0.439660
0.439660
0.439660
0.444580
0.449510
0.449510
0.449510
0.454430
0.454430
0.454430
0.454430
0.454430
0.454430
0.449510
0.449510
0.449510
0.449510
0.449510
0.454430
0.475370
0.485220
0.495070
0.509850
0.539410
0.560340
0.560340
0.550490
0.529560
0.504930
0.470440
0.434730
0.415020
0.405170
0.400250
0.395320
0.395320
0.395320
0.395320
0.400250
0.424880
0.495070
0.650250
0.874380
1.014800
0.900250
0.624380
0.424880
0.354680
0.349750
0.364530
0.369460
0.369460
0.375620
0.385470
0.390390
0.395320
0.410100
0.419950
0.424880
0.434730
0.439660
0.454430
0.460590
0.475370
0.490150
0.514780
0.539410
0.570200
0.604680
0.624380
0.640390
0.650250
0.640390
0.624380
0.589900
0.555420
0.519700
0.485220
0.454430
0.434730
0.424880
0.419950
0.415020
0.415020
0.415020
0.415020
0.415020
0.419950
0.424880
0.429800
0.434730
0.434730
0.439660
0.434730
0.434730
0.429800
0.429800
0.429800
0.429800
0.429800
0.429800
0.439660
0.460590
0.475370
0.485220
0.509850
0.545570
0.560340
0.555420
0.545570
0.524630
0.495070
0.454430
0.424880
0.415020
0.405170
0.400250
0.400250
0.395320
0.395320
0.395320
0.405170
0.429800
0.495070
0.635470
0.854680
1.004900
0.895320
0.619460
0.424880
0.354680
0.349750
0.364530
0.369460
0.375620
0.385470
0.395320
0.400250
0.410100
0.415020
0.424880
0.434730
0.439660
0.449510
0.460590
0.470440
0.490150
0.504930
0.529560
0.555420
0.584980
0.609610
0.635470
0.650250
0.655170
0.650250
0.630540
0.599750
0.565270
0.524630
0.490150
0.460590
0.444580
0.434730
0.424880
0.419950
0.419950
0.419950
0.419950
0.429800
0.434730
0.434730
0.439660
0.444580
0.444580
0.444580
0.449510
0.449510
0.444580
0.444580
0.439660
0.439660
0.439660
0.444580
0.454430
0.470440
0.485220
0.500000
0.524630
0.560340
0.570200
0.565270
0.555420
0.534480
0.509850
0.470440
0.434730
0.419950
0.415020
0.410100
0.410100
0.405170
0.405170
0.405170
0.410100
0.429800
0.495070
0.645320
0.859610
1.000000
0.880540
0.614530
0.424880
0.359610
0.364530
0.375620
0.380540
0.385470
0.390390
0.400250
0.410100
0.419950
0.429800
0.434730
0.449510
0.454430
0.465520
0.475370
0.485220
0.500000
0.514780
0.539410
0.565270
0.589900
0.619460
0.645320
0.660100
0.669950
0.660100
0.635470
0.604680
0.565270
0.529560
0.495070
0.465520
0.449510
0.439660
0.434730
0.429800
0.429800
0.429800
0.429800
0.429800
0.434730
0.434730
0.439660
0.439660
0.444580
0.449510
0.449510
0.449510
0.449510
0.454430
0.454430
0.454430
0.454430
0.449510
0.460590
0.480300
0.495070
0.504930
0.534480
0.565270
0.575120
0.565270
0.555420
0.534480
0.500000
0.460590
0.429800
0.415020
0.410100
0.410100
0.410100
0.410100
0.410100
0.410100
0.415020
0.444580
0.509850
0.660100
0.880540
1.009900
0.880540
0.604680
0.424880
0.364530
0.369460
0.385470
0.385470
0.395320
0.400250
0.410100
0.419950
0.429800
0.434730
0.444580
0.454430
0.460590
0.470440
0.480300
0.495070
0.509850
0.529560
0.555420
0.580050
0.614530
0.645320
0.660100
0.674880
0.679800
0.674880
0.650250
0.619460
0.584980
0.545570
0.509850
0.485220
0.465520
0.449510
0.444580
0.439660
0.439660
0.439660
0.444580
0.449510
0.449510
0.454430
0.460590
0.460590
0.460590
0.465520
0.465520
0.465520
0.460590
0.460590
0.460590
0.460590
0.460590
0.465520
0.475370
0.495070
0.514780
0.519700
0.539410
0.575120
0.589900
0.584980
0.575120
0.555420
0.524630
0.490150
0.460590
0.449510
0.439660
0.434730
0.434730
0.434730
0.434730
0.434730
0.439660
0.475370
0.560340
0.730300
0.970440
1.080000
0.919950
0.635470
0.449510
0.390390
0.390390
0.395320
0.400250
0.400250
0.410100
0.415020
0.419950
0.429800
0.434730
0.439660
0.444580
0.454430
0.460590
0.470440
0.480300
0.495070
0.509850
0.534480
0.565270
0.594830
0.624380
0.645320
0.660100
0.665020
0.655170
0.630540
0.599750
0.555420
0.519700
0.480300
0.449510
0.429800
0.419950
0.415020
0.410100
0.410100
0.410100
0.410100
0.415020
0.419950
0.419950
0.419950
0.429800
0.429800
0.434730
0.429800
0.429800
0.429800
0.429800
0.424880
0.424880
0.424880
0.429800
0.439660
0.449510
0.465520
0.480300
0.500000
0.534480
0.550490
0.555420
0.545570
0.524630
0.495070
0.454430
0.424880
0.410100
0.400250
0.395320
0.395320
0.395320
0.395320
0.395320
0.400250
0.424880
0.490150
0.630540
0.849750
1.004900
0.905170
0.635470
0.429800
0.359610
0.349750
0.359610
0.369460
0.375620
0.380540
0.385470
0.395320
0.400250
0.410100
0.415020
0.424880
0.434730
0.444580
0.454430
0.465520
0.480300
0.495070
0.519700
0.545570
0.580050
0.604680
0.630540
0.645320
0.650250
0.650250
0.630540
0.599750
0.560340
0.524630
0.490150
0.454430
0.434730
0.424880
0.419950
0.415020
0.415020
0.410100
0.410100
0.410100
0.415020
0.419950
0.424880
0.429800
0.434730
0.434730
0.434730
0.434730
0.434730
0.434730
0.434730
0.434730
0.439660
0.439660
0.444580
0.460590
0.475370
0.485220
0.509850
0.545570
0.560340
0.565270
0.555420
0.539410
0.509850
0.470440
0.434730
0.415020
0.405170
0.400250
0.395320
0.395320
0.395320
0.395320
0.400250
0.415020
0.475370
0.609610
0.820200
0.990150
0.919950
0.660100
0.444580
0.359610
0.349750
0.364530
0.369460
0.375620
0.385470
0.390390
0.395320
0.405170
0.415020
0.419950
0.429800
0.434730
0.439660
0.454430
0.465520
0.480300
0.495070
0.514780
0.545570
0.575120
0.604680
0.624380
0.645320
0.650250
0.655170
0.635470
0.599750
0.565270
0.524630
0.495070
0.465520
0.444580
0.429800
0.419950
0.419950
0.419950
0.415020
0.415020
0.419950
0.419950
0.424880
0.429800
0.434730
0.434730
0.434730
0.434730
0.434730
0.439660
0.444580
0.439660
0.439660
0.439660
0.439660
0.444580
0.460590
0.480300
0.495070
0.509850
0.545570
0.565270
0.570200
0.560340
0.539410
0.514780
0.475370
0.439660
0.415020
0.405170
0.400250
0.400250
0.400250
0.400250
0.400250
0.400250
0.415020
0.460590
0.575120
0.774630
0.975370
1.004900
0.720440
0.480300
0.375620
0.364530
0.375620
0.385470
0.385470
0.390390
0.395320
0.405170
0.410100
0.419950
0.424880
0.434730
0.439660
0.449510
0.460590
0.470440
0.480300
0.495070
0.514780
0.539410
0.570200
0.599750
0.624380
0.645320
0.650250
0.655170
0.635470
0.609610
0.580050
0.545570
0.509850
0.475370
0.449510
0.434730
0.429800
0.419950
0.419950
0.415020
0.419950
0.424880
0.429800
0.429800
0.434730
0.434730
0.439660
0.439660
0.439660
0.439660
0.439660
0.439660
0.444580
0.439660
0.439660
0.444580
0.449510
0.460590
0.480300
0.485220
0.500000
0.534480
0.560340
0.565270
0.560340
0.545570
0.524630
0.495070
0.460590
0.434730
0.424880
0.419950
0.415020
0.415020
0.419950
0.419950
0.424880
0.434730
0.480300
0.584980
0.779560
0.990150
1.039400
0.784480
0.529560
0.405170
0.380540
0.385470
0.390390
0.395320
0.400250
0.410100
0.419950
0.429800
0.434730
0.444580
0.454430
0.460590
0.470440
0.480300
0.490150
0.504930
0.519700
0.539410
0.565270
0.599750
0.630540
0.655170
0.674880
0.684730
0.689660
0.674880
0.650250
0.609610
0.570200
0.534480
0.500000
0.475370
0.454430
0.444580
0.434730
0.434730
0.434730
0.434730
0.434730
0.439660
0.449510
0.444580
0.444580
0.444580
0.449510
0.449510
0.449510
0.454430
0.454430
0.449510
0.444580
0.444580
0.439660
0.444580
0.449510
0.465520
0.480300
0.485220
0.509850
0.545570
0.560340
0.550490
0.545570
0.524630
0.500000
0.460590
0.429800
0.410100
0.400250
0.400250
0.395320
0.395320
0.395320
0.395320
0.400250
0.429800
0.504930
0.660100
0.885470
1.004900
0.859610
0.580050
0.405170
0.344830
0.344830
0.349750
0.354680
0.354680
0.364530
0.369460
0.380540
0.390390
0.400250
0.410100
0.415020
0.429800
0.434730
0.444580
0.454430
0.470440
0.490150
0.514780
0.545570
0.570200
0.599750
0.624380
0.640390
0.650250
0.640390
0.619460
0.589900
0.555420
0.514780
0.480300
0.454430
0.434730
0.429800
0.419950
0.415020
0.415020
0.415020
0.419950
0.424880
0.429800
0.429800
0.429800
0.434730
0.439660
0.439660
0.439660
0.439660
0.434730
0.434730
0.434730
0.434730
0.434730
0.434730
0.444580
0.460590
0.475370
0.485220
0.509850
0.550490
0.565270
0.555420
0.545570
0.524630
0.500000
0.460590
0.429800
0.410100
0.400250
0.395320
0.395320
0.400250
0.395320
0.390390
0.395320
0.419950
0.490150
0.630540
0.849750
1.000000
0.885470
0.614530
0.419950
0.354680
0.354680
0.364530
0.369460
0.380540
0.390390
0.395320
0.400250
0.405170
0.415020
0.419950
0.429800
0.434730
0.439660
0.449510
0.460590
0.475370
0.490150
0.514780
0.545570
0.580050
0.609610
0.630540
0.645320
0.650250
0.645320
0.630540
0.599750
0.565270
0.524630
0.495070
0.470440
0.444580
0.429800
0.424880
0.424880
0.424880
0.419950
0.424880
0.429800
0.429800
0.434730
0.439660
0.444580
0.449510
0.444580
0.449510
0.449510
0.449510
0.444580
0.444580
0.444580
0.439660
0.439660
0.444580
0.460590
0.475370
0.485220
0.500000
0.534480
0.560340
0.565270
0.550490
0.529560
0.504930
0.470440
0.434730
0.415020
0.400250
0.395320
0.395320
0.400250
0.400250
0.400250
0.400250
0.405170
0.449510
0.560340
0.754930
0.954430
0.995070
0.725370
0.485220
0.375620
0.354680
0.369460
0.369460
0.375620
0.385470
0.390390
0.395320
0.400250
0.415020
0.419950
0.424880
0.434730
0.444580
0.449510
0.460590
0.475370
0.490150
0.509850
0.534480
0.565270
0.594830
0.624380
0.640390
0.650250
0.645320
0.630540
0.604680
0.575120
0.539410
0.500000
0.470440
0.449510
0.434730
0.424880
0.419950
0.419950
0.419950
0.419950
0.419950
0.424880
0.429800
0.429800
0.434730
0.439660
0.439660
0.449510
0.449510
0.444580
0.439660
0.439660
0.439660
0.439660
0.439660
0.449510
0.454430
0.470440
0.480300
0.495070
0.529560
0.560340
0.565270
0.560340
0.545570
0.519700
0.485220
0.449510
0.415020
0.400250
0.395320
0.395320
0.395320
0.395320
0.395320
0.395320
0.410100
0.444580
0.534480
0.709360
0.924880
0.985220
0.779560
0.529560
0.390390
0.359610
0.369460
0.375620
0.380540
0.385470
0.390390
0.400250
0.400250
0.410100
0.415020
0.429800
0.439660
0.449510
0.454430
0.465520
0.475370
0.490150
0.514780
0.539410
0.570200
0.599750
0.630540
0.650250
0.665020
0.669950
0.655170
0.630540
0.599750
0.565270
0.529560
0.500000
0.475370
0.454430
0.439660
0.434730
0.434730
0.439660
0.434730
0.434730
0.434730
0.444580
0.449510
0.454430
0.454430
0.454430
0.460590
0.460590
0.465520
0.465520
0.460590
0.460590
0.460590
0.460590
0.460590
0.470440
0.490150
0.504930
0.509850
0.529560
0.565270
0.575120
0.580050
0.570200
0.555420
0.524630
0.490150
0.460590
0.444580
0.434730
0.429800
0.429800
0.424880
0.419950
0.419950
0.429800
0.460590
0.534480
0.699510
0.934730
1.070200
0.934730
0.645320
0.449510
0.390390
0.385470
0.390390
0.390390
0.395320
0.395320
0.400250
0.410100
0.415020
0.419950
0.429800
0.434730
0.444580
0.454430
0.465520
0.475370
0.485220
0.500000
0.524630
0.555420
0.584980
0.614530
0.635470
0.650250
0.655170
0.650250
0.624380
0.589900
0.550490
0.509850
0.475370
0.449510
0.434730
0.419950
0.415020
0.410100
0.410100
0.405170
0.405170
0.410100
0.415020
0.415020
0.419950
0.419950
0.429800
0.429800
0.429800
0.429800
0.434730
0.434730
0.434730
0.429800
0.429800
0.429800
0.434730
0.449510
0.465520
0.475370
0.495070
0.529560
0.550490
0.555420
0.550490
0.539410
0.509850
0.475370
0.439660
0.415020
0.405170
0.400250
0.395320
0.395320
0.395320
0.395320
0.400250
0.410100
0.460590
0.575120
0.779560
0.970440
1.000000
0.709360
0.475370
0.369460
0.349750
0.364530
0.375620
0.385470
0.385470
0.390390
0.395320
0.400250
0.410100
0.419950
0.429800
0.434730
0.449510
0.454430
0.465520
0.480300
0.495070
0.519700
0.545570
0.570200
0.604680
0.624380
0.645320
0.660100
0.660100
0.645320
0.614530
0.584980
0.545570
0.514780
0.480300
0.449510
0.429800
0.424880
0.419950
0.419950
0.419950
0.419950
0.419950
0.424880
0.429800
0.429800
0.434730
0.434730
0.434730
0.439660
0.439660
0.439660
0.439660
0.444580
0.444580
0.449510
0.444580
0.449510
0.454430
0.470440
0.480300
0.500000
0.534480
0.565270
0.570200
0.560340
0.545570
0.519700
0.490150
0.449510
0.429800
0.419950
0.415020
0.410100
0.405170
0.400250
0.400250
0.405170
0.415020
0.449510
0.545570
0.730300
0.939660
0.995070
0.774630
0.519700
0.390390
0.359610
0.364530
0.369460
0.375620
0.385470
0.390390
0.395320
0.405170
0.410100
0.419950
0.429800
0.439660
0.444580
0.449510
0.460590
0.475370
0.490150
0.509850
0.534480
0.565270
0.589900
0.619460
0.640390
0.655170
0.655170
0.640390
0.614530
0.584980
0.545570
0.504930
0.470440
0.449510
0.434730
0.419950
0.415020
0.415020
0.419950
0.424880
0.429800
0.429800
0.429800
0.434730
0.434730
0.439660
0.439660
0.439660
0.444580
0.444580
0.444580
0.444580
0.444580
0.439660
0.444580
0.444580
0.454430
0.475370
0.485220
0.500000
0.524630
0.555420
0.565270
0.560340
0.550490
0.524630
0.495070
0.454430
0.429800
0.415020
0.410100
0.405170
0.400250
0.400250
0.400250
0.400250
0.410100
0.434730
0.509850
0.669950
0.895320
1.004900
0.854680
0.580050
0.415020
0.359610
0.364530
0.375620
0.385470
0.385470
0.390390
0.395320
0.400250
0.415020
0.424880
0.434730
0.439660
0.449510
0.454430
0.465520
0.480300
0.495070
0.514780
0.534480
0.565270
0.599750
0.624380
0.645320
0.660100
0.665020
0.655170
0.630540
0.599750
0.560340
0.524630
0.490150
0.465520
0.449510
0.434730
0.424880
0.424880
0.429800
0.429800
0.429800
0.429800
0.429800
0.434730
0.434730
0.439660
0.439660
0.449510
0.449510
0.449510
0.449510
0.449510
0.444580
0.449510
0.444580
0.444580
0.454430
0.470440
0.480300
0.495070
0.519700
0.555420
0.565270
0.560340
0.550490
0.534480
0.504930
0.475370
0.444580
0.424880
0.419950
0.424880
0.424880
0.424880
0.424880
0.424880
0.429800
0.460590
0.529560
0.689660
0.910100
1.034500
0.895320
0.619460
0.439660
0.380540
0.385470
0.390390
0.395320
0.400250
0.410100
0.415020
0.419950
0.429800
0.434730
0.444580
0.454430
0.460590
0.470440
0.480300
0.490150
0.504930
0.524630
0.545570
0.575120
0.609610
0.640390
0.665020
0.679800
0.684730
0.674880
0.650250
0.619460
0.584980
0.545570
0.509850
0.480300
0.460590
0.449510
0.439660
0.434730
0.434730
0.434730
0.439660
0.439660
0.439660
0.444580
0.444580
0.449510
0.449510
0.449510
0.454430
0.460590
0.454430
0.449510
0.449510
0.449510
0.449510
0.449510
0.449510
0.460590
0.480300
0.485220
0.495070
0.529560
0.550490
0.550490
0.545570
0.524630
0.500000
0.470440
0.434730
0.415020
0.410100
0.400250
0.400250
0.400250
0.400250
0.400250
0.400250
0.424880
0.485220
0.614530
0.830050
1.004900
0.934730
0.669950
0.454430
0.369460
0.354680
0.364530
0.369460
0.375620
0.380540
0.390390
0.395320
0.400250
0.410100
0.419950
0.429800
0.434730
0.439660
0.449510
0.465520
0.480300
0.495070
0.514780
0.539410
0.570200
0.599750
0.619460
0.635470
0.645320
0.650250
0.630540
0.599750
0.565270
0.529560
0.495070
0.465520
0.444580
0.429800
0.419950
0.419950
0.415020
0.415020
0.415020
0.415020
0.419950
0.419950
0.424880
0.429800
0.429800
0.434730
0.439660
0.439660
0.439660
0.439660
0.439660
0.439660
0.434730
0.434730
0.434730
0.449510
0.465520
0.480300
0.490150
0.524630
0.550490
0.555420
0.550490
0.539410
0.514780
0.480300
0.444580
0.415020
0.410100
0.400250
0.400250
0.395320
0.395320
0.395320
0.400250
0.415020
0.454430
0.550490
0.730300
0.949510
1.000000
0.774630
0.509850
0.380540
0.349750
0.359610
0.369460
0.375620
0.380540
0.385470
0.390390
0.400250
0.410100
0.415020
0.424880
0.434730
0.439660
0.444580
0.454430
0.465520
0.480300
0.500000
0.524630
0.560340
0.584980
0.609610
0.635470
0.650250
0.650250
0.635470
0.609610
0.575120
0.534480
0.500000
0.465520
0.444580
0.429800
0.419950
0.415020
0.410100
0.410100
0.415020
0.415020
0.419950
0.419950
0.424880
0.429800
0.429800
0.429800
0.434730
0.439660
0.439660
0.439660
0.439660
0.439660
0.439660
0.439660
0.439660
0.454430
0.470440
0.480300
0.490150
0.519700
0.550490
0.560340
0.555420
0.545570
0.519700
0.495070
0.454430
0.429800
0.415020
0.410100
0.410100
0.405170
0.405170
0.410100
0.410100
0.410100
0.439660
0.524630
0.684730
0.900250
1.000000
0.844830
0.580050
0.410100
0.359610
0.364530
0.375620
0.385470
0.390390
0.390390
0.395320
0.410100
0.415020
0.424880
0.434730
0.439660
0.449510
0.454430
0.460590
0.475370
0.490150
0.509850
0.534480
0.560340
0.589900
0.619460
0.640390
0.655170
0.665020
0.660100
0.635470
0.604680
0.565270
0.524630
0.495070
0.470440
0.449510
0.434730
0.429800
0.429800
0.429800
0.429800
0.429800
0.434730
0.434730
0.439660
0.439660
0.439660
0.439660
0.444580
0.449510
0.449510
0.449510
0.454430
0.449510
0.449510
0.449510
0.449510
0.454430
0.470440
0.485220
0.495070
0.519700
0.555420
0.565270
0.560340
0.550490
0.524630
0.500000
0.465520
0.434730
0.419950
0.410100
0.410100
0.405170
0.405170
0.405170
0.410100
0.415020
0.434730
0.495070
0.630540
0.844830
1.000000
0.905170
0.635470
0.434730
0.369460
0.364530
0.375620
0.380540
0.385470
0.395320
0.400250
0.410100
0.419950
0.424880
0.434730
0.439660
0.449510
0.460590
0.470440
0.480300
0.495070
0.509850
0.534480
0.565270
0.594830
0.624380
0.650250
0.669950
0.679800
0.674880
0.655170
0.624380
0.584980
0.545570
0.514780
0.485220
0.465520
0.449510
0.439660
0.434730
0.434730
0.439660
0.439660
0.439660
0.449510
0.449510
0.449510
0.454430
0.454430
0.460590
0.460590
0.465520
0.465520
0.465520
0.460590
0.460590
0.460590
0.465520
0.470440
0.480300
0.500000
0.509850
0.519700
0.555420
0.575120
0.575120
0.565270
0.555420
0.534480
0.500000
0.470440
0.449510
0.439660
0.434730
0.434730
0.434730
0.429800
0.429800
0.429800
0.449510
0.504930
0.624380
0.834980
1.044300
1.080000
0.779560
0.524630
0.410100
0.390390
0.395320
0.395320
0.400250
0.410100
0.415020
0.419950
0.424880
0.434730
0.439660
0.444580
0.454430
0.460590
0.470440
0.480300
0.495070
0.509850
0.524630
0.555420
0.580050
0.609610
0.640390
0.655170
0.665020
0.669950
0.650250
0.619460
0.580050
0.539410
0.509850
0.475370
0.449510
0.434730
0.429800
0.419950
0.415020
0.415020
0.415020
0.419950
0.424880
0.429800
0.434730
0.439660
0.439660
0.439660
0.439660
0.434730
0.434730
0.434730
0.434730
0.434730
0.434730
0.434730
0.434730
0.449510
0.465520
0.480300
0.490150
0.519700
0.550490
0.560340
0.550490
0.539410
0.519700
0.490150
0.454430
0.429800
0.415020
0.405170
0.400250
0.400250
0.400250
0.400250
0.400250
0.410100
0.444580
0.529560
0.704430
0.919950
0.995070
0.815270
0.545570
0.385470
0.349750
0.354680
0.364530
0.369460
0.375620
0.380540
0.385470
0.395320
0.400250
0.410100
0.419950
0.429800
0.439660
0.449510
0.460590
0.470440
0.485220
0.500000
0.524630
0.555420
0.584980
0.609610
0.635470
0.650250
0.655170
0.640390
0.614530
0.584980
0.545570
0.509850
0.475370
0.454430
0.439660
0.429800
0.419950
0.415020
0.415020
0.415020
0.419950
0.419950
0.419950
0.424880
0.429800
0.429800
0.434730
0.434730
0.439660
0.439660
0.439660
0.439660
0.439660
0.439660
0.439660
0.444580
0.454430
0.470440
0.485220
0.495070
0.519700
0.555420
0.570200
0.565270
0.555420
0.534480
0.509850
0.475370
0.444580
0.424880
0.415020
0.410100
0.410100
0.410100
0.405170
0.410100
0.410100
0.429800
0.490150
0.630540
0.844830
1.009900
0.929800
0.660100
0.444580
0.369460
0.364530
0.375620
0.380540
0.385470
0.390390
0.395320
0.400250
0.415020
0.424880
0.434730
0.444580
0.449510
0.460590
0.465520
0.475370
0.490150
0.509850
0.529560
0.560340
0.589900
0.619460
0.645320
0.665020
0.669950
0.674880
0.650250
0.624380
0.589900
0.550490
0.514780
0.480300
0.460590
0.449510
0.434730
0.434730
0.429800
0.434730
0.434730
0.434730
0.439660
0.439660
0.444580
0.449510
0.454430
0.454430
0.454430
0.454430
0.454430
0.454430
0.454430
0.454430
0.454430
0.449510
0.454430
0.470440
0.485220
0.495070
0.514780
0.550490
0.575120
0.575120
0.570200
0.550490
0.519700
0.490150
0.454430
0.429800
0.419950
0.415020
0.415020
0.415020
0.410100
0.410100
0.415020
0.424880
0.470440
0.575120
0.764780
0.970440
1.009900
0.754930
0.504930
0.385470
0.369460
0.380540
0.385470
0.390390
0.395320
0.400250
0.405170
0.410100
0.419950
0.429800
0.439660
0.449510
0.454430
0.465520
0.480300
0.495070
0.509850
0.524630
0.550490
0.580050
0.604680
0.630540
0.645320
0.660100
0.665020
0.650250
0.624380
0.589900
0.550490
0.514780
0.490150
0.465520
0.449510
0.434730
0.434730
0.429800
0.429800
0.429800
0.434730
0.434730
0.434730
0.439660
0.439660
0.444580
0.449510
0.449510
0.449510
0.449510
0.449510
0.449510
0.449510
0.449510
0.449510
0.454430
0.465520
0.480300
0.500000
0.509850
0.539410
0.565270
0.575120
0.565270
0.550490
0.529560
0.500000
0.470440
0.439660
0.429800
0.429800
0.429800
0.429800
0.429800
0.429800
0.429800
0.444580
0.480300
0.565270
0.740150
0.959360
1.029600
0.844830
0.580050
0.424880
0.385470
0.390390
0.395320
0.400250
0.410100
0.415020
0.424880
0.434730
0.444580
0.454430
0.460590
0.465520
0.475370
0.485220
0.500000
0.509850
0.524630
0.539410
0.570200
0.599750
0.635470
0.665020
0.679800
0.694580
0.699510
0.684730
0.660100
0.624380
0.584980
0.545570
0.509850
0.480300
0.465520
0.449510
0.439660
0.439660
0.439660
0.439660
0.449510
0.449510
0.449510
0.454430
0.460590
0.460590
0.460590
0.460590
0.465520
0.460590
0.460590
0.460590
0.454430
0.454430
0.454430
0.449510
0.454430
0.470440
0.485220
0.490150
0.504930
0.539410
0.560340
0.560340
0.550490
0.539410
0.514780
0.480300
0.444580
0.424880
0.415020
0.410100
0.405170
0.400250
0.400250
0.400250
0.405170
0.429800
0.490150
0.624380
0.839900
1.014800
0.939660
0.674880
0.454430
0.369460
0.359610
0.364530
0.364530
0.369460
0.375620
0.385470
0.390390
0.400250
0.410100
0.415020
0.429800
0.439660
0.449510
0.460590
0.470440
0.490150
0.500000
0.519700
0.545570
0.575120
0.599750
0.624380
0.645320
0.655170
0.650250
0.630540
0.599750
0.560340
0.519700
0.490150
0.454430
0.434730
0.419950
0.410100
0.410100
0.410100
0.410100
0.415020
0.419950
0.419950
0.419950
0.429800
0.429800
0.434730
0.439660
0.439660
0.439660
0.434730
0.434730
0.434730
0.434730
0.434730
0.429800
0.439660
0.454430
0.470440
0.480300
0.495070
0.529560
0.555420
0.560340
0.550490
0.534480
0.509850
0.470440
0.434730
0.410100
0.400250
0.400250
0.400250
0.400250
0.395320
0.395320
0.395320
0.410100
0.454430
0.555420
0.745070
0.954430
1.000000
0.754930
0.500000
0.380540
0.354680
0.364530
0.369460
0.375620
0.385470
0.395320
0.400250
0.410100
0.415020
0.424880
0.429800
0.439660
0.449510
0.460590
0.470440
0.480300
0.495070
0.514780
0.539410
0.565270
0.599750
0.624380
0.645320
0.655170
0.660100
0.650250
0.624380
0.584980
0.550490
0.514780
0.485220
0.460590
0.439660
0.429800
0.429800
0.429800
0.429800
0.429800
0.429800
0.429800
0.429800
0.439660
0.439660
0.439660
0.439660
0.439660
0.444580
0.444580
0.449510
0.449510
0.449510
0.449510
0.449510
0.449510
0.460590
0.480300
0.495070
0.504930
0.534480
0.560340
0.565270
0.560340
0.550490
0.524630
0.495070
0.460590
0.434730
0.419950
0.415020
0.415020
0.415020
0.410100
0.410100
0.410100
0.415020
0.439660
0.524630
0.694580
0.910100
1.009900
0.849750
0.584980
0.419950
0.364530
0.369460
0.380540
0.385470
0.395320
0.400250
0.410100
0.415020
0.419950
0.429800
0.439660
0.449510
0.454430
0.460590
0.465520
0.480300
0.495070
0.509850
0.534480
0.560340
0.589900
0.619460
0.645320
0.655170
0.660100
0.655170
0.635470
0.599750
0.560340
0.524630
0.495070
0.470440
0.449510
0.439660
0.434730
0.429800
0.424880
0.424880
0.429800
0.434730
0.434730
0.439660
0.449510
0.449510
0.454430
0.454430
0.454430
0.449510
0.449510
0.449510
0.444580
0.444580
0.439660
0.444580
0.454430
0.475370
0.485220
0.495070
0.524630
0.560340
0.570200
0.565270
0.555420
0.539410
0.509850
0.470440
0.434730
0.419950
0.415020
0.415020
0.410100
0.410100
0.405170
0.405170
0.415020
0.434730
0.495070
0.635470
0.854680
1.009900
0.915020
0.645320
0.444580
0.369460
0.369460
0.380540
0.385470
0.390390
0.400250
0.410100
0.410100
0.415020
0.424880
0.434730
0.444580
0.449510
0.454430
0.465520
0.475370
0.490150
0.509850
0.534480
0.565270
0.594830
0.624380
0.645320
0.665020
0.669950
0.674880
0.650250
0.619460
0.584980
0.545570
0.509850
0.480300
0.460590
0.449510
0.439660
0.439660
0.434730
0.434730
0.439660
0.444580
0.444580
0.454430
0.460590
0.465520
0.465520
0.465520
0.465520
0.465520
0.465520
0.465520
0.465520
0.465520
0.465520
0.465520
0.470440
0.485220
0.500000
0.504930
0.519700
0.555420
0.575120
0.580050
0.570200
0.560340
0.534480
0.504930
0.470440
0.449510
0.439660
0.434730
0.434730
0.434730
0.429800
0.429800
0.434730
0.454430
0.514780
0.640390
0.854680
1.055400
1.075100
0.759850
0.509850
0.400250
0.390390
0.390390
0.395320
0.400250
0.405170
0.415020
0.419950
0.424880
0.429800
0.434730
0.444580
0.454430
0.460590
0.465520
0.480300
0.490150
0.504930
0.524630
0.555420
0.580050
0.609610
0.635470
0.650250
0.660100
0.655170
0.635470
0.604680
0.570200
0.524630
0.490150
0.454430
0.429800
0.415020
0.405170
0.400250
0.400250
0.400250
0.400250
0.400250
0.410100
0.415020
0.419950
0.419950
0.419950
0.424880
0.429800
0.429800
0.434730
0.429800
0.429800
0.429800
0.429800
0.429800
0.434730
0.444580
0.460590
0.475370
0.480300
0.509850
0.539410
0.545570
0.539410
0.529560
0.509850
0.475370
0.444580
0.419950
0.405170
0.400250
0.395320
0.395320
0.395320
0.395320
0.400250
0.410100
0.439660
0.529560
0.699510
0.919950
0.995070
0.810340
0.545570
0.390390
0.349750
0.349750
0.359610
0.364530
0.369460
0.375620
0.385470
0.395320
0.400250
0.405170
0.410100
0.419950
0.429800
0.434730
0.444580
0.460590
0.480300
0.500000
0.519700
0.550490
0.580050
0.609610
0.630540
0.650250
0.655170
0.640390
0.614530
0.584980
0.545570
0.509850
0.470440
0.449510
0.429800
0.419950
0.410100
0.405170
0.405170
0.405170
0.410100
0.410100
0.415020
0.419950
0.429800
0.429800
0.429800
0.429800
0.429800
0.429800
0.429800
0.429800
0.429800
0.429800
0.429800
0.434730
0.444580
0.460590
0.480300
0.490150
0.514780
0.545570
0.560340
0.550490
0.539410
0.519700
0.490150
0.454430
0.424880
0.410100
0.405170
0.400250
0.400250
0.400250
0.395320
0.395320
0.410100
0.434730
0.500000
0.650250
0.874380
1.009900
0.885470
0.609610
0.424880
0.359610
0.354680
0.364530
0.375620
0.385470
0.385470
0.390390
0.400250
0.410100
0.415020
0.419950
0.429800
0.434730
0.444580
0.454430
0.465520
0.480300
0.495070
0.519700
0.550490
0.580050
0.609610
0.630540
0.650250
0.655170
0.650250
0.630540
0.604680
0.565270
0.524630
0.495070
0.460590
0.444580
0.434730
0.429800
0.429800
0.424880
0.424880
0.419950
0.419950
0.424880
0.429800
0.434730
0.434730
0.439660
0.439660
0.439660
0.439660
0.439660
0.434730
0.434730
0.434730
0.429800
0.434730
0.449510
0.470440
0.485220
0.495070
0.519700
0.550490
0.565270
0.565270
0.550490
0.524630
0.495070
0.460590
0.434730
0.419950
0.410100
0.405170
0.400250
0.400250
0.405170
0.405170
0.410100
0.429800
0.490150
0.630540
0.844830
1.000000
0.910100
0.650250
0.444580
0.369460
0.364530
0.369460
0.369460
0.380540
0.390390
0.395320
0.405170
0.410100
0.415020
0.419950
0.429800
0.439660
0.449510
0.460590
0.475370
0.490150
0.509850
0.529560
0.560340
0.584980
0.614530
0.635470
0.655170
0.660100
0.655170
0.630540
0.599750
0.565270
0.529560
0.495070
0.470440
0.444580
0.429800
0.419950
0.415020
0.415020
0.415020
0.419950
0.419950
0.424880
0.429800
0.429800
0.434730
0.434730
0.439660
0.439660
0.444580
0.444580
0.444580
0.444580
0.439660
0.439660
0.439660
0.449510
0.470440
0.485220
0.495070
0.519700
0.555420
0.565270
0.560340
0.550490
0.534480
0.509850
0.480300
0.449510
0.434730
0.429800
0.429800
0.429800
0.424880
0.419950
0.419950
0.429800
0.449510
0.504930
0.645320
0.869460
1.029600
0.939660
0.669950
0.460590
0.385470
0.375620
0.390390
0.395320
0.400250
0.410100
0.415020
0.419950
0.429800
0.439660
0.449510
0.454430
0.465520
0.475370
0.485220
0.495070
0.504930
0.524630
0.550490
0.580050
0.609610
0.635470
0.665020
0.679800
0.684730
0.679800
0.665020
0.630540
0.594830
0.560340
0.519700
0.490150
0.470440
0.454430
0.449510
0.444580
0.439660
0.439660
0.444580
0.449510
0.449510
0.449510
0.449510
0.454430
0.454430
0.454430
0.454430
0.454430
0.454430
0.454430
0.454430
0.454430
0.449510
0.449510
0.454430
0.470440
0.485220
0.495070
0.504930
0.539410
0.560340
0.560340
0.550490
0.534480
0.509850
0.475370
0.444580
0.429800
0.415020
0.410100
0.405170
0.405170
0.405170
0.400250
0.405170
0.424880
0.480300
0.609610
0.820200
1.004900
1.019700
0.694580
0.465520
0.369460
0.354680
0.359610
0.364530
0.364530
0.369460
0.380540
0.390390
0.395320
0.410100
0.415020
0.419950
0.429800
0.434730
0.444580
0.454430
0.470440
0.490150
0.509850
0.534480
0.565270
0.589900
0.614530
0.630540
0.640390
0.645320
0.624380
0.594830
0.555420
0.519700
0.480300
0.449510
0.429800
0.415020
0.410100
0.410100
0.400250
0.400250
0.400250
0.405170
0.410100
0.415020
0.415020
0.419950
0.424880
0.429800
0.429800
0.429800
0.429800
0.429800
0.434730
0.429800
0.429800
0.429800
0.434730
0.449510
0.465520
0.475370
0.495070
0.529560
0.555420
0.560340
0.545570
0.529560
0.504930
0.475370
0.434730
0.415020
0.410100
0.400250
0.400250
0.395320
0.395320
0.395320
0.400250
0.415020
0.465520
0.589900
0.795570
0.980300
1.004900
0.704430
0.470440
0.364530
0.349750
0.359610
0.369460
0.369460
0.375620
0.385470
0.395320
0.400250
0.410100
0.415020
0.429800
0.434730
0.444580
0.454430
0.465520
0.480300
0.495070
0.514780
0.545570
0.575120
0.604680
0.630540
0.650250
0.655170
0.660100
0.635470
0.609610
0.575120
0.539410
0.504930
0.475370
0.449510
0.434730
0.419950
0.415020
0.415020
0.415020
0.415020
0.419950
0.424880
0.429800
0.434730
0.434730
0.434730
0.439660
0.439660
0.439660
0.439660
0.439660
0.439660
0.439660
0.439660
0.439660
0.449510
0.465520
0.480300
0.490150
0.509850
0.545570
0.565270
0.570200
0.555420
0.534480
0.509850
0.470440
0.439660
0.419950
0.410100
0.410100
0.410100
0.405170
0.405170
0.405170
0.410100
0.424880
0.475370
0.594830
0.800490
0.990150
1.009900
0.694580
0.465520
0.369460
0.354680
0.369460
0.375620
0.385470
0.395320
0.400250
0.410100
0.415020
0.419950
0.429800
0.434730
0.449510
0.460590
0.465520
0.480300
0.495070
0.509850
0.524630
0.550490
0.580050
0.609610
0.635470
0.650250
0.660100
0.660100
0.640390
0.609610
0.580050
0.539410
0.500000
0.470440
0.449510
0.434730
0.429800
0.419950
0.419950
0.419950
0.419950
0.429800
0.429800
0.434730
0.434730
0.439660
0.439660
0.444580
0.439660
0.439660
0.439660
0.444580
0.449510
0.449510
0.449510
0.449510
0.454430
0.475370
0.490150
0.500000
0.524630
0.560340
0.570200
0.565270
0.560340
0.545570
0.514780
0.480300
0.444580
0.429800
0.415020
0.410100
0.410100
0.410100
0.415020
0.410100
0.415020
0.429800
0.490150
0.624380
0.830050
0.995070
0.915020
0.660100
0.449510
0.369460
0.364530
0.369460
0.380540
0.385470
0.390390
0.400250
0.410100
0.415020
0.424880
0.434730
0.439660
0.439660
0.454430
0.465520
0.480300
0.495070
0.514780
0.534480
0.565270
0.599750
0.624380
0.650250
0.665020
0.674880
0.669950
0.645320
0.619460
0.584980
0.545570
0.509850
0.480300
0.465520
0.449510
0.439660
0.434730
0.434730
0.434730
0.434730
0.439660
0.444580
0.449510
0.454430
0.454430
0.454430
0.460590
0.460590
0.465520
0.465520
0.465520
0.465520
0.465520
0.465520
0.465520
0.475370
0.495070
0.504930
0.514780
0.534480
0.570200
0.580050
0.575120
0.570200
0.550490
0.524630
0.490150
0.454430
0.439660
0.434730
0.429800
0.429800
0.424880
0.424880
0.424880
0.429800
0.465520
0.545570
0.709360
0.944580
1.075100
0.924880
0.635470
0.439660
0.380540
0.380540
0.390390
0.390390
0.400250
0.405170
0.410100
0.415020
0.419950
0.424880
0.429800
0.439660
0.449510
0.460590
0.465520
0.475370
0.485220
0.500000
0.519700
0.550490
0.580050
0.604680
0.630540
0.645320
0.650250
0.640390
0.614530
0.584980
0.545570
0.504930
0.470440
0.439660
0.419950
0.410100
0.405170
0.400250
0.400250
0.405170
0.410100
0.410100
0.415020
0.419950
0.424880
0.429800
0.429800
0.429800
0.429800
0.429800
0.429800
0.429800
0.424880
0.424880
0.424880
0.429800
0.444580
0.460590
0.475370
0.490150
0.524630
0.545570
0.550490
0.534480
0.519700
0.495070
0.460590
0.424880
0.405170
0.395320
0.390390
0.390390
0.390390
0.390390
0.390390
0.390390
0.405170
0.449510
0.560340
0.759850
0.965520
1.000000
0.720440
0.475370
0.359610
0.339900
0.349750
0.354680
0.364530
0.369460
0.380540
0.390390
0.395320
0.405170
0.415020
0.419950
0.429800
0.434730
0.449510
0.460590
0.475370
0.490150
0.509850
0.534480
0.560340
0.589900
0.619460
0.635470
0.645320
0.650250
0.630540
0.604680
0.570200
0.534480
0.500000
0.470440
0.449510
0.434730
0.424880
0.419950
0.415020
0.415020
0.415020
0.419950
0.419950
0.424880
0.429800
0.429800
0.434730
0.434730
0.439660
0.434730
0.434730
0.439660
0.439660
0.434730
0.434730
0.434730
0.439660
0.454430
0.470440
0.475370
0.490150
0.524630
0.550490
0.555420
0.550490
0.529560
0.504930
0.470440
0.434730
0.415020
0.410100
0.410100
0.405170
0.400250
0.400250
0.400250
0.405170
0.419950
0.465520
0.575120
0.774630
0.975370
1.009900
0.730300
0.485220
0.375620
0.359610
0.369460
0.375620
0.380540
0.385470
0.390390
0.400250
0.405170
0.415020
0.424880
0.434730
0.439660
0.449510
0.460590
0.475370
0.485220
0.500000
0.519700
0.545570
0.570200
0.599750
0.624380
0.645320
0.655170
0.660100
0.645320
0.619460
0.584980
0.545570
0.509850
0.475370
0.454430
0.439660
0.429800
0.424880
0.419950
0.419950
0.419950
0.424880
0.429800
0.434730
0.434730
0.439660
0.449510
0.449510
0.449510
0.449510
0.449510
0.449510
0.444580
0.439660
0.439660
0.444580
0.454430
0.465520
0.480300
0.490150
0.514780
0.555420
0.565270
0.560340
0.550490
0.539410
0.509850
0.475370
0.439660
0.419950
0.415020
0.415020
0.415020
0.415020
0.415020
0.415020
0.419950
0.434730
0.485220
0.614530
0.825120
0.995070
1.000000
0.674880
0.460590
0.375620
0.369460
0.375620
0.385470
0.390390
0.395320
0.400250
0.410100
0.415020
0.419950
0.429800
0.434730
0.439660
0.449510
0.460590
0.475370
0.485220
0.504930
0.524630
0.555420
0.580050
0.609610
0.635470
0.655170
0.660100
0.660100
0.645320
0.619460
0.584980
0.545570
0.509850
0.480300
0.454430
0.439660
0.434730
0.429800
0.429800
0.424880
0.424880
0.429800
0.429800
0.439660
0.444580
0.449510
0.449510
0.449510
0.449510
0.454430
0.454430
0.454430
0.454430
0.454430
0.454430
0.454430
0.465520
0.480300
0.495070
0.500000
0.529560
0.565270
0.575120
0.570200
0.560340
0.539410
0.514780
0.475370
0.444580
0.429800
0.424880
0.419950
0.419950
0.419950
0.419950
0.424880
0.429800
0.460590
0.539410
0.699510
0.915020
1.024600
0.880540
0.604680
0.429800
0.375620
0.385470
0.395320
0.400250
0.405170
0.410100
0.419950
0.429800
0.434730
0.444580
0.449510
0.460590
0.465520
0.475370
0.480300
0.495070
0.509850
0.524630
0.555420
0.584980
0.619460
0.645320
0.669950
0.684730
0.689660
0.674880
0.650250
0.619460
0.580050
0.545570
0.509850
0.480300
0.460590
0.449510
0.439660
0.434730
0.434730
0.434730
0.434730
0.434730
0.439660
0.449510
0.454430
0.454430
0.454430
0.454430
0.454430
0.454430
0.460590
0.454430
0.454430
0.454430
0.454430
0.454430
0.460590
0.475370
0.490150
0.495070
0.519700
0.550490
0.560340
0.555420
0.545570
0.524630
0.500000
0.460590
0.429800
0.415020
0.410100
0.410100
0.410100
0.405170
0.400250
0.400250
0.415020
0.449510
0.539410
0.715520
0.939660
1.019700
0.825120
0.550490
0.385470
0.349750
0.354680
0.359610
0.364530
0.369460
0.375620
0.390390
0.395320
0.405170
0.415020
0.419950
0.429800
0.434730
0.444580
0.454430
0.470440
0.485220
0.500000
0.524630
0.550490
0.580050
0.604680
0.630540
0.640390
0.650250
0.635470
0.609610
0.580050
0.539410
0.504930
0.470440
0.444580
0.419950
0.410100
0.410100
0.410100
0.410100
0.410100
0.410100
0.410100
0.415020
0.419950
0.419950
0.424880
0.424880
0.424880
0.424880
0.429800
0.429800
0.429800
0.429800
0.424880
0.424880
0.429800
0.444580
0.460590
0.475370
0.485220
0.519700
0.545570
0.550490
0.545570
0.529560
0.509850
0.475370
0.439660
0.415020
0.400250
0.395320
0.395320
0.395320
0.395320
0.395320
0.400250
0.410100
0.444580
0.545570
0.720440
0.939660
0.995070
0.795570
0.529560
0.390390
0.354680
0.364530
0.369460
0.375620
0.380540
0.390390
0.395320
0.400250
0.415020
0.419950
0.429800
0.434730
0.439660
0.439660
0.454430
0.470440
0.490150
0.509850
0.534480
0.565270
0.599750
0.624380
0.640390
0.655170
0.660100
0.645320
0.619460
0.589900
0.555420
0.514780
0.480300
0.454430
0.434730
0.429800
0.424880
0.419950
0.419950
0.419950
0.424880
0.429800
0.434730
0.434730
0.439660
0.439660
0.444580
0.444580
0.449510
0.449510
0.449510
0.449510
0.449510
0.454430
0.454430
0.454430
0.465520
0.480300
0.495070
0.514780
0.550490
0.570200
0.575120
0.565270
0.550490
0.524630
0.490150
0.454430
0.429800
0.419950
0.415020
0.410100
0.410100
0.405170
0.405170
0.410100
0.424880
0.465520
0.565270
0.754930
0.965520
1.009900
0.759850
0.509850
0.390390
0.375620
0.380540
0.390390
0.390390
0.395320
0.400250
0.410100
0.415020
0.419950
0.424880
0.434730
0.439660
0.449510
0.460590
0.470440
0.480300
0.500000
0.519700
0.545570
0.580050
0.604680
0.630540
0.650250
0.655170
0.660100
0.640390
0.619460
0.584980
0.550490
0.514780
0.485220
0.460590
0.444580
0.434730
0.429800
0.429800
0.424880
0.424880
0.429800
0.429800
0.429800
0.434730
0.439660
0.449510
0.449510
0.449510
0.454430
0.454430
0.449510
0.449510
0.449510
0.449510
0.444580
0.449510
0.465520
0.485220
0.495070
0.514780
0.545570
0.565270
0.570200
0.560340
0.545570
0.519700
0.480300
0.444580
0.424880
0.415020
0.410100
0.405170
0.405170
0.400250
0.400250
0.410100
0.424880
0.470440
0.575120
0.769700
0.970440
1.004900
0.735220
0.495070
0.380540
0.364530
0.375620
0.385470
0.385470
0.395320
0.400250
0.410100
0.415020
0.419950
0.429800
0.439660
0.449510
0.460590
0.465520
0.475370
0.490150
0.509850
0.529560
0.555420
0.584980
0.614530
0.640390
0.660100
0.669950
0.674880
0.655170
0.630540
0.599750
0.565270
0.524630
0.495070
0.470440
0.454430
0.449510
0.444580
0.444580
0.439660
0.439660
0.439660
0.449510
0.449510
0.449510
0.454430
0.460590
0.460590
0.465520
0.470440
0.465520
0.465520
0.465520
0.465520
0.465520
0.465520
0.470440
0.485220
0.504930
0.514780
0.529560
0.560340
0.580050
0.584980
0.575120
0.565270
0.539410
0.500000
0.470440
0.449510
0.434730
0.429800
0.429800
0.429800
0.429800
0.429800
0.439660
0.454430
0.509850
0.645320
0.864530
1.065300
1.085000
0.754930
0.509850
0.405170
0.390390
0.395320
0.400250
0.405170
0.410100
0.415020
0.419950
0.429800
0.434730
0.449510
0.454430
0.460590
0.465520
0.475370
0.485220
0.500000
0.514780
0.539410
0.565270
0.594830
0.624380
0.650250
0.669950
0.674880
0.669950
0.645320
0.619460
0.580050
0.539410
0.500000
0.470440
0.449510
0.434730
0.424880
0.419950
0.419950
0.419950
0.419950
0.419950
0.419950
0.429800
0.434730
0.439660
0.439660
0.439660
0.439660
0.439660
0.434730
0.434730
0.434730
0.434730
0.434730
0.434730
0.434730
0.454430
0.475370
0.480300
0.500000
0.534480
0.560340
0.560340
0.560340
0.545570
0.519700
0.485220
0.449510
0.424880
0.410100
0.410100
0.400250
0.400250
0.400250
0.400250
0.400250
0.410100
0.454430
0.570200
0.769700
0.970440
1.004900
0.735220
0.485220
0.369460
0.354680
0.364530
0.369460
0.375620
0.380540
0.385470
0.395320
0.405170
0.415020
0.419950
0.429800
0.439660
0.444580
0.454430
0.465520
0.475370
0.490150
0.514780
0.539410
0.570200
0.594830
0.619460
0.635470
0.650250
0.650250
0.635470
0.604680
0.575120
0.534480
0.500000
0.470440
0.449510
0.434730
0.419950
0.415020
0.415020
0.415020
0.419950
0.419950
0.419950
0.424880
0.429800
0.434730
0.434730
0.439660
0.439660
0.439660
0.439660
0.439660
0.439660
0.439660
0.439660
0.439660
0.444580
0.460590
0.475370
0.485220
0.495070
0.534480
0.565270
0.570200
0.560340
0.550490
0.524630
0.490150
0.454430
0.429800
0.419950
0.415020
0.410100
0.410100
0.410100
0.410100
0.410100
0.419950
0.454430
0.550490
0.725370
0.939660
1.000000
0.795570
0.534480
0.400250
0.364530
0.375620
0.385470
0.385470
0.390390
0.395320
0.400250
0.415020
0.419950
0.429800
0.434730
0.439660
0.444580
0.454430
0.465520
0.480300
0.495070
0.514780
0.539410
0.565270
0.594830
0.619460
0.645320
0.660100
0.665020
0.650250
0.624380
0.594830
0.555420
0.519700
0.485220
0.460590
0.444580
0.434730
0.434730
0.429800
0.429800
0.429800
0.429800
0.429800
0.434730
0.439660
0.444580
0.444580
0.449510
0.454430
0.454430
0.454430
0.449510
0.449510
0.444580
0.449510
0.444580
0.444580
0.460590
0.480300
0.495070
0.500000
0.534480
0.565270
0.570200
0.560340
0.545570
0.524630
0.490150
0.449510
0.424880
0.410100
0.400250
0.400250
0.400250
0.395320
0.395320
0.400250
0.410100
0.444580
0.524630
0.694580
0.915020
1.009900
0.825120
0.555420
0.395320
0.354680
0.364530
0.369460
0.375620
0.375620
0.385470
0.395320
0.400250
0.410100
0.419950
0.429800
0.439660
0.449510
0.454430
0.460590
0.470440
0.490150
0.514780
0.534480
0.560340
0.589900
0.619460
0.640390
0.660100
0.669950
0.655170
0.624380
0.594830
0.560340
0.524630
0.495070
0.470440
0.449510
0.439660
0.434730
0.429800
0.424880
0.424880
0.424880
0.424880
0.434730
0.449510
0.454430
0.454430
0.454430
0.454430
0.460590
0.460590
0.454430
0.454430
0.454430
0.449510
0.454430
0.454430
0.465520
0.485220
0.500000
0.509850
0.534480
0.560340
0.570200
0.565270
0.560340
0.539410
0.514780
0.475370
0.444580
0.429800
0.424880
0.424880
0.424880
0.419950
0.419950
0.424880
0.429800
0.460590
0.524630
0.669950
0.880540
1.004900
0.880540
0.614530
0.444580
0.385470
0.385470
0.390390
0.395320
0.400250
0.410100
0.419950
0.424880
0.429800
0.434730
0.444580
0.454430
0.465520
0.475370
0.480300
0.490150
0.500000
0.524630
0.550490
0.580050
0.604680
0.635470
0.655170
0.669950
0.674880
0.665020
0.645320
0.619460
0.580050
0.539410
0.504930
0.480300
0.460590
0.449510
0.434730
0.429800
0.434730
0.434730
0.434730
0.434730
0.439660
0.449510
0.449510
0.454430
0.454430
0.454430
0.454430
0.454430
0.454430
0.449510
0.449510
0.449510
0.444580
0.444580
0.449510
0.470440
0.485220
0.490150
0.509850
0.539410
0.555420
0.550490
0.539410
0.524630
0.500000
0.470440
0.434730
0.415020
0.405170
0.400250
0.395320
0.395320
0.395320
0.405170
0.415020
0.444580
0.504930
0.635470
0.849750
1.009900
0.924880
0.655170
0.444580
0.369460
0.359610
0.369460
0.375620
0.380540
0.385470
0.390390
0.395320
0.405170
0.415020
0.424880
0.429800
0.439660
0.449510
0.460590
0.470440
0.480300
0.495070
0.514780
0.545570
0.575120
0.604680
0.630540
0.645320
0.655170
0.650250
0.624380
0.594830
0.560340
0.519700
0.485220
0.454430
0.434730
0.429800
0.419950
0.415020
0.415020
0.415020
0.419950
0.424880
0.429800
0.429800
0.429800
0.434730
0.439660
0.439660
0.439660
0.439660
0.434730
0.434730
0.434730
0.434730
0.429800
0.429800
0.434730
0.454430
0.475370
0.480300
0.495070
0.529560
0.555420
0.560340
0.550490
0.534480
0.509850
0.475370
0.439660
0.415020
0.405170
0.400250
0.400250
0.400250
0.400250
0.400250
0.400250
0.410100
0.454430
0.565270
0.759850
0.959360
1.000000
0.735220
0.490150
0.375620
0.354680
0.359610
0.364530
0.369460
0.375620
0.385470
0.395320
0.400250
0.415020
0.424880
0.429800
0.434730
0.444580
0.449510
0.460590
0.470440
0.490150
0.509850
0.539410
0.565270
0.594830
0.619460
0.635470
0.645320
0.650250
0.635470
0.609610
0.575120
0.539410
0.500000
0.475370
0.449510
0.434730
0.424880
0.419950
0.424880
0.419950
0.424880
0.429800
0.429800
0.429800
0.434730
0.434730
0.434730
0.434730
0.439660
0.434730
0.434730
0.434730
0.439660
0.444580
0.439660
0.439660
0.439660
0.454430
0.475370
0.490150
0.500000
0.524630
0.555420
0.560340
0.550490
0.539410
0.514780
0.485220
0.449510
0.424880
0.410100
0.400250
0.400250
0.400250
0.400250
0.405170
0.400250
0.415020
0.444580
0.524630
0.689660
0.905170
1.000000
0.839900
0.575120
0.415020
0.369460
0.369460
0.375620
0.380540
0.390390
0.395320
0.400250
0.410100
0.419950
0.429800
0.434730
0.444580
0.449510
0.454430
0.460590
0.475370
0.495070
0.519700
0.539410
0.565270
0.589900
0.619460
0.640390
0.655170
0.660100
0.650250
0.624380
0.594830
0.565270
0.524630
0.495070
0.460590
0.439660
0.429800
0.419950
0.419950
0.419950
0.424880
0.429800
0.429800
0.429800
0.434730
0.439660
0.444580
0.439660
0.439660
0.439660
0.444580
0.444580
0.449510
0.444580
0.439660
0.439660
0.439660
0.454430
0.470440
0.480300
0.495070
0.514780
0.545570
0.560340
0.560340
0.550490
0.524630
0.500000
0.465520
0.434730
0.415020
0.410100
0.400250
0.400250
0.400250
0.400250
0.400250
0.400250
0.424880
0.480300
0.609610
0.815270
0.985220
0.910100
0.655170
0.449510
0.369460
0.364530
0.369460
0.375620
0.380540
0.385470
0.395320
0.400250
0.405170
0.415020
0.429800
0.434730
0.444580
0.449510
0.460590
0.475370
0.490150
0.509850
0.524630
0.555420
0.584980
0.614530
0.640390
0.660100
0.669950
0.660100
0.645320
0.614530
0.580050
0.550490
0.514780
0.480300
0.454430
0.444580
0.439660
0.434730
0.434730
0.434730
0.439660
0.439660
0.444580
0.449510
0.449510
0.454430
0.465520
0.465520
0.465520
0.460590
0.454430
0.460590
0.460590
0.460590
0.460590
0.460590
0.460590
0.475370
0.495070
0.504930
0.514780
0.539410
0.565270
0.570200
0.560340
0.550490
0.529560
0.500000
0.470440
0.439660
0.429800
0.429800
0.424880
0.424880
0.424880
0.419950
0.419950
0.434730
0.475370
0.575120
0.769700
1.000000
1.055400
0.820200
0.550490
0.410100
0.385470
0.385470
0.390390
0.395320
0.405170
0.410100
0.415020
0.424880
0.429800
0.434730
0.444580
0.454430
0.460590
0.465520
0.475370
0.485220
0.500000
0.519700
0.539410
0.570200
0.599750
0.630540
0.650250
0.660100
0.660100
0.650250
0.619460
0.584980
0.545570
0.514780
0.480300
0.454430
0.434730
0.424880
0.419950
0.415020
0.415020
0.415020
0.415020
0.419950
0.424880
0.429800
0.429800
0.434730
0.434730
0.434730
0.434730
0.434730
0.434730
0.434730
0.434730
0.434730
0.429800
0.434730
0.449510
0.470440
0.480300
0.490150
0.519700
0.545570
0.555420
0.550490
0.534480
0.514780
0.485220
0.454430
0.424880
0.415020
0.410100
0.405170
0.400250
0.400250
0.400250
0.400250
0.410100
0.444580
0.539410
0.720440
0.939660
1.004900
0.810340
0.539410
0.390390
0.349750
0.359610
0.369460
0.369460
0.375620
0.385470
0.390390
0.395320
0.400250
0.405170
0.415020
0.419950
0.434730
0.439660
0.454430
0.465520
0.480300
0.500000
0.524630
0.555420
0.580050
0.604680
0.624380
0.640390
0.645320
0.635470
0.609610
0.575120
0.539410
0.500000
0.470440
0.444580
0.429800
0.419950
0.415020
0.415020
0.415020
0.419950
0.419950
0.419950
0.424880
0.429800
0.429800
0.434730
0.439660
0.434730
0.434730
0.434730
0.434730
0.434730
0.434730
0.434730
0.434730
0.434730
0.439660
0.454430
0.470440
0.480300
0.500000
0.534480
0.550490
0.555420
0.545570
0.524630
0.500000
0.470440
0.434730
0.415020
0.405170
0.400250
0.400250
0.400250
0.400250
0.400250
0.405170
0.424880
0.475370
0.594830
0.800490
0.990150
1.009900
0.699510
0.470440
0.375620
0.364530
0.369460
0.375620
0.380540
0.385470
0.390390
0.395320
0.405170
0.415020
0.419950
0.429800
0.434730
0.449510
0.460590
0.475370
0.485220
0.500000
0.519700
0.545570
0.580050
0.604680
0.630540
0.650250
0.655170
0.660100
0.640390
0.609610
0.580050
0.545570
0.509850
0.475370
0.454430
0.439660
0.429800
0.429800
0.429800
0.429800
0.434730
0.429800
0.429800
0.434730
0.434730
0.439660
0.449510
0.449510
0.449510
0.449510
0.449510
0.449510
0.444580
0.449510
0.449510
0.449510
0.449510
0.460590
0.485220
0.500000
0.509850
0.539410
0.565270
0.575120
0.570200
0.555420
0.529560
0.500000
0.470440
0.439660
0.429800
0.419950
0.415020
0.415020
0.410100
0.410100
0.410100
0.424880
0.454430
0.529560
0.689660
0.910100
1.019700
0.869460
0.599750
0.429800
0.375620
0.375620
0.385470
0.390390
0.400250
0.400250
0.405170
0.415020
0.419950
0.429800
0.434730
0.449510
0.454430
0.460590
0.470440
0.480300
0.495070
0.514780
0.539410
0.570200
0.604680
0.630540
0.650250
0.669950
0.674880
0.660100
0.645320
0.609610
0.570200
0.539410
0.504930
0.480300
0.460590
0.449510
0.439660
0.429800
0.429800
0.429800
0.434730
0.434730
0.439660
0.444580
0.449510
0.449510
0.454430
0.454430
0.454430
0.454430
0.454430
0.454430
0.454430
0.449510
0.449510
0.454430
0.465520
0.480300
0.500000
0.504930
0.524630
0.555420
0.570200
0.575120
0.565270
0.545570
0.519700
0.495070
0.460590
0.439660
0.434730
0.429800
0.419950
0.419950
0.419950
0.424880
0.429800
0.444580
0.500000
0.630540
0.839900
1.019700
1.034500
0.715520
0.490150
0.400250
0.390390
0.395320
0.405170
0.410100
0.415020
0.424880
0.434730
0.439660
0.449510
0.460590
0.465520
0.475370
0.480300
0.485220
0.495070
0.509850
0.524630
0.550490
0.575120
0.604680
0.635470
0.660100
0.674880
0.684730
0.684730
0.669950
0.640390
0.599750
0.555420
0.519700
0.495070
0.475370
0.460590
0.449510
0.449510
0.449510
0.444580
0.444580
0.444580
0.449510
0.449510
0.454430
0.454430
0.454430
0.454430
0.454430
0.460590
0.460590
0.460590
0.454430
0.454430
0.454430
0.454430
0.460590
0.470440
0.485220
0.490150
0.500000
0.524630
0.555420
0.560340
0.550490
0.545570
0.524630
0.495070
0.460590
0.429800
0.415020
0.415020
0.410100
0.410100
0.405170
0.405170
0.405170
0.415020
0.454430
0.545570
0.715520
0.934730
1.014800
0.834980
0.570200
0.410100
0.364530
0.364530
0.369460
0.369460
0.369460
0.380540
0.390390
0.395320
0.400250
0.415020
0.419950
0.429800
0.439660
0.449510
0.454430
0.460590
0.475370
0.495070
0.519700
0.545570
0.580050
0.604680
0.624380
0.640390
0.645320
0.630540
0.604680
0.570200
0.534480
0.500000
0.465520
0.439660
0.424880
0.415020
0.410100
0.410100
0.405170
0.400250
0.400250
0.400250
0.405170
0.410100
0.415020
0.415020
0.415020
0.419950
0.429800
0.429800
0.429800
0.429800
0.429800
0.424880
0.429800
0.429800
0.434730
0.444580
0.460590
0.475370
0.495070
0.524630
0.545570
0.539410
0.529560
0.519700
0.490150
0.460590
0.424880
0.410100
0.400250
0.395320
0.390390
0.390390
0.385470
0.385470
0.385470
0.405170
0.454430
0.580050
0.795570
0.980300
0.990150
0.674880
0.449510
0.354680
0.344830
0.354680
0.364530
0.369460
0.375620
0.385470
0.395320
0.400250
0.410100
0.415020
0.419950
0.429800
0.439660
0.449510
0.460590
0.475370
0.495070
0.514780
0.539410
0.570200
0.599750
0.624380
0.645320
0.655170
0.650250
0.630540
0.604680
0.570200
0.534480
0.500000
0.470440
0.444580
0.429800
0.419950
0.415020
0.415020
0.410100
0.410100
0.415020
0.419950
0.419950
0.424880
0.434730
0.439660
0.439660
0.439660
0.439660
0.439660
0.439660
0.439660
0.434730
0.434730
0.434730
0.444580
0.460590
0.475370
0.485220
0.495070
0.529560
0.555420
0.560340
0.550490
0.539410
0.509850
0.480300
0.449510
0.424880
0.410100
0.405170
0.400250
0.400250
0.400250
0.400250
0.410100
0.419950
0.454430
0.555420
0.745070
0.954430
1.004900
0.769700
0.509850
0.385470
0.364530
0.369460
0.369460
0.380540
0.390390
0.395320
0.400250
0.410100
0.415020
0.424880
0.429800
0.439660
0.449510
0.460590
0.465520
0.480300
0.495070
0.514780
0.539410
0.565270
0.599750
0.624380
0.645320
0.660100
0.665020
0.650250
0.624380
0.589900
0.555420
0.514780
0.485220
0.460590
0.439660
0.429800
0.429800
0.434730
0.429800
0.429800
0.429800
0.434730
0.434730
0.434730
0.439660
0.439660
0.439660
0.444580
0.449510
0.449510
0.449510
0.449510
0.449510
0.449510
0.449510
0.454430
0.460590
0.480300
0.495070
0.504930
0.534480
0.565270
0.575120
0.570200
0.560340
0.529560
0.490150
0.454430
0.429800
0.419950
0.415020
0.415020
0.415020
0.410100
0.415020
0.415020
0.424880
0.454430
0.539410
0.709360
0.919950
0.990150
0.810340
0.550490
0.405170
0.369460
0.369460
0.380540
0.385470
0.390390
0.395320
0.405170
0.415020
0.429800
0.434730
0.439660
0.444580
0.454430
0.465520
0.480300
0.490150
0.509850
0.534480
0.560340
0.584980
0.614530
0.640390
0.660100
0.674880
0.674880
0.665020
0.640390
0.609610
0.575120
0.534480
0.500000
0.475370
0.460590
0.449510
0.449510
0.444580
0.439660
0.434730
0.434730
0.439660
0.449510
0.449510
0.454430
0.454430
0.454430
0.460590
0.465520
0.465520
0.465520
0.465520
0.460590
0.460590
0.454430
0.460590
0.475370
0.495070
0.504930
0.504930
0.524630
0.560340
0.570200
0.575120
0.570200
0.550490
0.519700
0.480300
0.454430
0.439660
0.429800
0.424880
0.424880
0.419950
0.419950
0.419950
0.434730
0.470440
0.560340
0.730300
0.959360
1.065300
0.885470
0.594830
0.429800
0.380540
0.375620
0.380540
0.385470
0.390390
0.395320
0.400250
0.410100
0.415020
0.419950
0.429800
0.434730
0.439660
0.449510
0.460590
0.475370
0.485220
0.500000
0.519700
0.550490
0.580050
0.609610
0.630540
0.645320
0.655170
0.640390
0.614530
0.575120
0.539410
0.504930
0.475370
0.449510
0.429800
0.410100
0.400250
0.400250
0.400250
0.400250
0.405170
0.405170
0.410100
0.415020
0.419950
0.424880
0.429800
0.429800
0.429800
0.429800
0.429800
0.429800
0.429800
0.429800
0.429800
0.429800
0.444580
0.465520
0.470440
0.490150
0.529560
0.555420
0.560340
0.550490
0.539410
0.514780
0.475370
0.444580
0.419950
0.410100
0.410100
0.405170
0.405170
0.400250
0.400250
0.405170
0.415020
0.475370
0.609610
0.834980
1.009900
0.929800
0.665020
0.449510
0.364530
0.354680
0.369460
0.375620
0.385470
0.390390
0.400250
0.410100
0.419950
0.424880
0.429800
0.434730
0.439660
0.449510
0.454430
0.465520
0.475370
0.495070
0.519700
0.545570
0.575120
0.604680
0.624380
0.640390
0.650250
0.640390
0.619460
0.589900
0.560340
0.524630
0.490150
0.460590
0.439660
0.429800
0.419950
0.415020
0.410100
0.410100
0.410100
0.415020
0.419950
0.424880
0.429800
0.429800
0.429800
0.429800
0.429800
0.429800
0.429800
0.429800
0.429800
0.434730
0.434730
0.434730
0.434730
0.449510
0.465520
0.480300
0.490150
0.519700
0.545570
0.560340
0.550490
0.545570
0.524630
0.490150
0.449510
0.415020
0.405170
0.395320
0.395320
0.395320
0.400250
0.400250
0.400250
0.410100
0.434730
0.509850
0.669950
0.890390
1.004900
0.854680
0.575120
0.405170
0.354680
0.349750
0.354680
0.359610
0.369460
0.385470
0.390390
0.390390
0.400250
0.410100
0.419950
0.429800
0.439660
0.444580
0.454430
0.470440
0.485220
0.504930
0.529560
0.560340
0.584980
0.609610
0.635470
0.650250
0.655170
0.650250
0.624380
0.589900
0.555420
0.514780
0.480300
0.454430
0.434730
0.424880
0.415020
0.415020
0.410100
0.410100
0.415020
0.419950
0.419950
0.419950
0.424880
0.424880
0.434730
0.434730
0.439660
0.439660
0.439660
0.439660
0.439660
0.439660
0.439660
0.444580
0.454430
0.475370
0.485220
0.490150
0.519700
0.560340
0.575120
0.570200
0.560340
0.529560
0.495070
0.460590
0.429800
0.415020
0.410100
0.405170
0.405170
0.400250
0.400250
0.400250
0.405170
0.434730
0.504930
0.655170
0.869460
1.000000
0.874380
0.609610
0.424880
0.359610
0.364530
0.369460
0.375620
0.385470
0.390390
0.400250
0.410100
0.415020
0.424880
0.429800
0.434730
0.439660
0.449510
0.460590
0.475370
0.485220
0.504930
0.529560
0.560340
0.589900
0.619460
0.645320
0.660100
0.665020
0.655170
0.635470
0.604680
0.565270
0.524630
0.495070
0.470440
0.449510
0.434730
0.429800
0.429800
0.424880
0.424880
0.424880
0.429800
0.429800
0.434730
0.439660
0.444580
0.444580
0.449510
0.454430
0.454430
0.460590
0.454430
0.454430
0.449510
0.449510
0.454430
0.465520
0.480300
0.490150
0.500000
0.524630
0.560340
0.570200
0.565270
0.560340
0.534480
0.504930
0.470440
0.444580
0.424880
0.419950
0.419950
0.419950
0.415020
0.415020
0.415020
0.419950
0.449510
0.524630
0.679800
0.900250
1.024600
0.880540
0.604680
0.429800
0.375620
0.380540
0.390390
0.395320
0.400250
0.410100
0.419950
0.429800
0.439660
0.449510
0.460590
0.465520
0.470440
0.475370
0.485220
0.495070
0.509850
0.534480
0.560340
0.584980
0.614530
0.645320
0.669950
0.684730
0.684730
0.674880
0.655170
0.619460
0.584980
0.545570
0.509850
0.475370
0.454430
0.449510
0.439660
0.439660
0.439660
0.439660
0.439660
0.439660
0.439660
0.449510
0.460590
0.460590
0.465520
0.460590
0.460590
0.460590
0.460590
0.460590
0.460590
0.454430
0.460590
0.460590
0.465520
0.480300
0.495070
0.500000
0.519700
0.555420
0.570200
0.565270
0.560340
0.550490
0.519700
0.490150
0.449510
0.434730
0.419950
0.415020
0.415020
0.410100
0.410100
0.410100
0.419950
0.449510
0.514780
0.669950
0.895320
1.034500
0.915020
0.635470
0.434730
0.364530
0.364530
0.369460
0.369460
0.375620
0.385470
0.390390
0.395320
0.400250
0.410100
0.415020
0.424880
0.434730
0.439660
0.449510
0.460590
0.470440
0.490150
0.509850
0.534480
0.565270
0.589900
0.614530
0.630540
0.635470
0.630540
0.604680
0.580050
0.539410
0.500000
0.470440
0.444580
0.424880
0.410100
0.400250
0.395320
0.395320
0.395320
0.395320
0.400250
0.405170
0.410100
0.410100
0.410100
0.410100
0.415020
0.415020
0.419950
0.419950
0.419950
0.419950
0.419950
0.419950
0.419950
0.424880
0.434730
0.449510
0.460590
0.485220
0.524630
0.545570
0.539410
0.534480
0.514780
0.485220
0.444580
0.410100
0.395320
0.385470
0.380540
0.375620
0.380540
0.380540
0.380540
0.385470
0.405170
0.465520
0.594830
0.805420
0.975370
0.980300
0.650250
0.439660
0.354680
0.349750
0.354680
0.364530
0.364530
0.369460
0.375620
0.385470
0.395320
0.410100
0.415020
0.419950
0.429800
0.434730
0.439660
0.454430
0.470440
0.485220
0.509850
0.534480
0.565270
0.594830
0.619460
0.635470
0.645320
0.650250
0.624380
0.599750
0.565270
0.524630
0.490150
0.460590
0.439660
0.424880
0.419950
0.415020
0.415020
0.415020
0.410100
0.415020
0.415020
0.419950
0.429800
0.434730
0.434730
0.439660
0.439660
0.439660
0.434730
0.434730
0.434730
0.439660
0.439660
0.439660
0.449510
0.460590
0.475370
0.485220
0.504930
0.539410
0.560340
0.565270
0.560340
0.545570
0.519700
0.480300
0.444580
0.429800
0.419950
0.410100
0.410100
0.405170
0.405170
0.405170
0.410100
0.424880
0.465520
0.575120
0.769700
0.975370
1.009900
0.740150
0.490150
0.380540
0.364530
0.369460
0.375620
0.385470
0.390390
0.395320
0.405170
0.415020
0.419950
0.429800
0.439660
0.444580
0.449510
0.460590
0.470440
0.480300
0.504930
0.524630
0.555420
0.580050
0.609610
0.635470
0.655170
0.669950
0.674880
0.655170
0.630540
0.599750
0.565270
0.524630
0.495070
0.465520
0.449510
0.444580
0.439660
0.439660
0.439660
0.439660
0.439660
0.449510
0.449510
0.449510
0.454430
0.460590
0.460590
0.460590
0.460590
0.454430
0.454430
0.460590
0.454430
0.454430
0.460590
0.465520
0.475370
0.490150
0.495070
0.514780
0.555420
0.580050
0.584980
0.575120
0.560340
0.529560
0.495070
0.460590
0.434730
0.424880
0.419950
0.419950
0.419950
0.419950
0.419950
0.419950
0.429800
0.470440
0.575120
0.759850
0.959360
1.004900
0.759850
0.514780
0.395320
0.369460
0.375620
0.385470
0.390390
0.395320
0.400250
0.410100
0.419950
0.429800
0.434730
0.439660
0.454430
0.465520
0.475370
0.485220
0.495070
0.509850
0.529560
0.555420
0.584980
0.614530
0.640390
0.660100
0.674880
0.674880
0.655170
0.630540
0.599750
0.565270
0.529560
0.495070
0.475370
0.454430
0.444580
0.439660
0.434730
0.434730
0.434730
0.434730
0.439660
0.444580
0.439660
0.449510
0.454430
0.460590
0.460590
0.460590
0.460590
0.460590
0.460590
0.460590
0.460590
0.460590
0.460590
0.475370
0.495070
0.500000
0.509850
0.539410
0.570200
0.580050
0.570200
0.560340
0.539410
0.509850
0.475370
0.449510
0.434730
0.429800
0.429800
0.429800
0.424880
0.424880
0.429800
0.439660
0.485220
0.589900
0.795570
1.019700
1.075100
0.825120
0.555420
0.419950
0.385470
0.390390
0.395320
0.400250
0.405170
0.410100
0.419950
0.424880
0.429800
0.434730
0.444580
0.454430
0.460590
0.470440
0.480300
0.495070
0.504930
0.524630
0.550490
0.580050
0.609610
0.635470
0.660100
0.674880
0.674880
0.655170
0.624380
0.584980
0.550490
0.509850
0.475370
0.449510
0.434730
0.419950
0.415020
0.410100
0.415020
0.415020
0.415020
0.419950
0.419950
0.429800
0.429800
0.429800
0.434730
0.434730
0.434730
0.434730
0.429800
0.429800
0.429800
0.424880
0.424880
0.429800
0.439660
0.454430
0.470440
0.475370
0.500000
0.534480
0.545570
0.545570
0.539410
0.524630
0.495070
0.454430
0.419950
0.400250
0.395320
0.395320
0.395320
0.395320
0.395320
0.400250
0.410100
0.439660
0.509850
0.669950
0.885470
1.004900
0.864530
0.589900
0.415020
0.359610
0.354680
0.369460
0.375620
0.380540
0.385470
0.390390
0.395320
0.410100
0.415020
0.424880
0.434730
0.439660
0.449510
0.460590
0.470440
0.485220
0.500000
0.519700
0.550490
0.584980
0.614530
0.635470
0.650250
0.655170
0.650250
0.624380
0.589900
0.555420
0.514780
0.480300
0.449510
0.434730
0.419950
0.415020
0.415020
0.410100
0.415020
0.415020
0.415020
0.415020
0.424880
0.429800
0.434730
0.434730
0.439660
0.439660
0.439660
0.434730
0.434730
0.434730
0.429800
0.429800
0.429800
0.434730
0.454430
0.470440
0.480300
0.500000
0.539410
0.560340
0.555420
0.545570
0.524630
0.500000
0.460590
0.429800
0.415020
0.405170
0.395320
0.395320
0.395320
0.395320
0.400250
0.400250
0.419950
0.475370
0.604680
0.810340
0.985220
0.990150
0.669950
0.454430
0.364530
0.349750
0.359610
0.364530
0.369460
0.375620
0.385470
0.395320
0.400250
0.410100
0.419950
0.429800
0.439660
0.449510
0.454430
0.465520
0.480300
0.495070
0.519700
0.545570
0.570200
0.604680
0.624380
0.645320
0.655170
0.650250
0.630540
0.599750
0.565270
0.529560
0.495070
0.460590
0.439660
0.429800
0.424880
0.419950
0.419950
0.419950
0.424880
0.429800
0.429800
0.434730
0.434730
0.434730
0.439660
0.449510
0.444580
0.444580
0.444580
0.449510
0.444580
0.439660
0.439660
0.449510
0.454430
0.470440
0.485220
0.495070
0.509850
0.545570
0.570200
0.570200
0.565270
0.550490
0.524630
0.490150
0.449510
0.434730
0.419950
0.415020
0.410100
0.410100
0.410100
0.410100
0.410100
0.424880
0.470440
0.580050
0.774630
0.980300
1.014800
0.735220
0.490150
0.375620
0.364530
0.375620
0.380540
0.385470
0.390390
0.400250
0.410100
0.415020
0.424880
0.429800
0.434730
0.444580
0.454430
0.465520
0.475370
0.490150
0.504930
0.524630
0.555420
0.580050
0.604680
0.630540
0.650250
0.660100
0.665020
0.645320
0.619460
0.584980
0.545570
0.514780
0.480300
0.454430
0.439660
0.429800
0.419950
0.419950
0.419950
0.424880
0.429800
0.434730
0.439660
0.439660
0.439660
0.444580
0.449510
0.454430
0.454430
0.454430
0.449510
0.449510
0.449510
0.449510
0.449510
0.454430
0.465520
0.485220
0.495070
0.509850
0.539410
0.570200
0.575120
0.560340
0.550490
0.524630
0.495070
0.454430
0.429800
0.419950
0.419950
0.419950
0.419950
0.419950
0.415020
0.419950
0.434730
0.470440
0.565270
0.750000
0.965520
1.019700
0.805420
0.545570
0.405170
0.375620
0.385470
0.395320
0.400250
0.410100
0.415020
0.419950
0.434730
0.439660
0.449510
0.454430
0.460590
0.465520
0.475370
0.485220
0.500000
0.514780
0.534480
0.565270
0.594830
0.624380
0.650250
0.669950
0.679800
0.679800
0.669950
0.640390
0.604680
0.570200
0.534480
0.500000
0.470440
0.449510
0.439660
0.434730
0.434730
0.439660
0.439660
0.439660
0.439660
0.449510
0.454430
0.454430
0.460590
0.460590
0.460590
0.465520
0.465520
0.465520
0.460590
0.454430
0.454430
0.454430
0.465520
0.475370
0.490150
0.500000
0.504930
0.524630
0.560340
0.570200
0.565270
0.560340
0.545570
0.514780
0.480300
0.444580
0.429800
0.419950
0.419950
0.419950
0.419950
0.419950
0.419950
0.424880
0.460590
0.539410
0.715520
0.944580
1.044300
0.864530
0.589900
0.419950
0.369460
0.369460
0.380540
0.385470
0.390390
0.395320
0.400250
0.415020
0.419950
0.424880
0.429800
0.439660
0.444580
0.454430
0.465520
0.480300
0.495070
0.509850
0.529560
0.560340
0.589900
0.619460
0.640390
0.655170
0.655170
0.645320
0.619460
0.589900
0.555420
0.514780
0.480300
0.454430
0.439660
0.424880
0.415020
0.415020
0.410100
0.410100
0.410100
0.410100
0.415020
0.419950
0.424880
0.429800
0.429800
0.434730
0.434730
0.434730
0.429800
0.429800
0.434730
0.434730
0.434730
0.434730
0.444580
0.460590
0.480300
0.485220
0.500000
0.534480
0.555420
0.560340
0.550490
0.534480
0.509850
0.475370
0.439660
0.419950
0.410100
0.410100
0.410100
0.405170
0.405170
0.410100
0.410100
0.424880
0.475370
0.589900
0.795570
0.985220
1.009900
0.704430
0.465520
0.369460
0.354680
0.364530
0.369460
0.369460
0.380540
0.390390
0.395320
0.400250
0.410100
0.419950
0.429800
0.434730
0.444580
0.449510
0.460590
0.470440
0.490150
0.509850
0.534480
0.565270
0.599750
0.624380
0.640390
0.650250
0.645320
0.630540
0.604680
0.570200
0.534480
0.500000
0.475370
0.449510
0.434730
0.424880
0.419950
0.419950
0.419950
0.424880
0.424880
0.424880
0.429800
0.429800
0.434730
0.439660
0.444580
0.444580
0.444580
0.439660
0.439660
0.444580
0.439660
0.439660
0.439660
0.444580
0.454430
0.475370
0.485220
0.500000
0.534480
0.565270
0.570200
0.560340
0.550490
0.524630
0.490150
0.449510
0.424880
0.410100
0.400250
0.400250
0.400250
0.400250
0.400250
0.400250
0.410100
0.444580
0.545570
0.725370
0.939660
0.995070
0.779560
0.524630
0.385470
0.354680
0.364530
0.369460
0.375620
0.380540
0.385470
0.395320
0.400250
0.410100
0.419950
0.429800
0.434730
0.439660
0.454430
0.465520
0.480300
0.495070
0.514780
0.534480
0.565270
0.589900
0.619460
0.640390
0.650250
0.655170
0.640390
0.614530
0.584980
0.545570
0.509850
0.480300
0.454430
0.434730
0.424880
0.419950
0.415020
0.415020
0.415020
0.419950
0.424880
0.429800
0.429800
0.434730
0.434730
0.439660
0.439660
0.439660
0.439660
0.439660
0.434730
0.429800
0.429800
0.429800
0.434730
0.444580
0.465520
0.475370
0.490150
0.519700
0.555420
0.565270
0.560340
0.550490
0.529560
0.500000
0.460590
0.429800
0.415020
0.410100
0.405170
0.400250
0.400250
0.400250
0.400250
0.400250
0.429800
0.504930
0.665020
0.885470
1.000000
0.859610
0.589900
0.415020
0.359610
0.364530
0.375620
0.380540
0.385470
0.390390
0.395320
0.400250
0.410100
0.419950
0.429800
0.439660
0.449510
0.454430
0.465520
0.480300
0.495070
0.514780
0.539410
0.570200
0.599750
0.624380
0.650250
0.665020
0.674880
0.660100
0.640390
0.609610
0.580050
0.539410
0.504930
0.480300
0.460590
0.449510
0.439660
0.439660
0.439660
0.444580
0.444580
0.449510
0.449510
0.454430
0.454430
0.460590
0.460590
0.465520
0.465520
0.465520
0.465520
0.460590
0.460590
0.460590
0.460590
0.460590
0.470440
0.490150
0.504930
0.519700
0.534480
0.565270
0.580050
0.575120
0.565270
0.550490
0.524630
0.495070
0.465520
0.449510
0.439660
0.434730
0.434730
0.434730
0.434730
0.434730
0.444580
0.470440
0.539410
0.694580
0.924880
1.075100
0.954430
0.669950
0.460590
0.390390
0.385470
0.390390
0.395320
0.400250
0.410100
0.415020
0.415020
0.429800
0.439660
0.449510
0.460590
0.465520
0.475370
0.485220
0.495070
0.504930
0.519700
0.545570
0.570200
0.604680
0.630540
0.655170
0.669950
0.679800
0.669950
0.645320
0.609610
0.565270
0.529560
0.500000
0.470440
0.449510
0.434730
0.419950
0.415020
0.415020
0.415020
0.415020
0.419950
0.419950
0.424880
0.429800
0.434730
0.429800
0.434730
0.439660
0.439660
0.434730
0.434730
0.434730
0.429800
0.424880
0.429800
0.434730
0.449510
0.470440
0.480300
0.495070
0.524630
0.550490
0.555420
0.539410
0.529560
0.509850
0.475370
0.439660
0.415020
0.405170
0.400250
0.395320
0.395320
0.395320
0.395320
0.395320
0.410100
0.460590
0.584980
0.789410
0.975370
0.995070
0.689660
0.460590
0.359610
0.349750
0.359610
0.364530
0.369460
0.375620
0.385470
0.395320
0.400250
0.410100
0.419950
0.424880
0.434730
0.439660
0.449510
0.454430
0.470440
0.495070
0.519700
0.545570
0.570200
0.599750
0.624380
0.645320
0.655170
0.655170
0.640390
0.609610
0.575120
0.534480
0.500000
0.475370
0.449510
0.434730
0.424880
0.424880
0.419950
0.424880
0.429800
0.429800
0.429800
0.429800
0.429800
0.434730
0.439660
0.439660
0.439660
0.439660
0.439660
0.439660
0.439660
0.439660
0.439660
0.439660
0.449510
0.460590
0.475370
0.485220
0.495070
0.529560
0.565270
0.570200
0.560340
0.545570
0.524630
0.490150
0.454430
0.429800
0.415020
0.410100
0.405170
0.405170
0.405170
0.400250
0.405170
0.419950
0.460590
0.560340
0.745070
0.954430
1.009900
0.764780
0.514780
0.390390
0.354680
0.359610
0.364530
0.375620
0.385470
0.390390
0.390390
0.400250
0.410100
0.419950
0.429800
0.434730
0.439660
0.449510
0.454430
0.470440
0.490150
0.509850
0.534480
0.565270
0.599750
0.624380
0.645320
0.650250
0.655170
0.640390
0.614530
0.580050
0.539410
0.509850
0.475370
0.449510
0.434730
0.424880
0.419950
0.419950
0.419950
0.419950
0.419950
0.419950
0.429800
0.429800
0.434730
0.439660
0.444580
0.444580
0.444580
0.449510
0.449510
0.449510
0.449510
0.449510
0.444580
0.449510
0.465520
0.480300
0.490150
0.500000
0.534480
0.565270
0.575120
0.570200
0.550490
0.524630
0.490150
0.454430
0.429800
0.415020
0.410100
0.405170
0.400250
0.400250
0.405170
0.405170
0.415020
0.460590
0.560340
0.735220
0.944580
1.000000
0.779560
0.524630
0.395320
0.369460
0.375620
0.385470
0.390390
0.395320
0.400250
0.410100
0.415020
0.424880
0.429800
0.434730
0.439660
0.449510
0.460590
0.470440
0.485220
0.500000
0.524630
0.550490
0.580050
0.604680
0.630540
0.645320
0.655170
0.655170
0.645320
0.619460
0.584980
0.545570
0.509850
0.480300
0.454430
0.434730
0.424880
0.419950
0.419950
0.419950
0.424880
0.424880
0.424880
0.429800
0.434730
0.434730
0.439660
0.439660
0.444580
0.444580
0.449510
0.449510
0.449510
0.449510
0.444580
0.444580
0.449510
0.460590
0.480300
0.490150
0.500000
0.534480
0.560340
0.565270
0.560340
0.550490
0.519700
0.490150
0.449510
0.424880
0.415020
0.410100
0.405170
0.405170
0.405170
0.410100
0.410100
0.424880
0.465520
0.565270
0.754930
0.965520
1.014800
0.764780
0.514780
0.390390
0.369460
0.380540
0.390390
0.390390
0.400250
0.410100
0.410100
0.415020
0.424880
0.434730
0.439660
0.449510
0.454430
0.465520
0.480300
0.495070
0.504930
0.524630
0.555420
0.584980
0.619460
0.645320
0.665020
0.674880
0.674880
0.655170
0.630540
0.599750
0.560340
0.514780
0.480300
0.460590
0.449510
0.439660
0.434730
0.429800
0.429800
0.429800
0.429800
0.434730
0.434730
0.439660
0.439660
0.444580
0.449510
0.449510
0.449510
0.449510
0.454430
0.454430
0.460590
0.454430
0.454430
0.460590
0.470440
0.485220
0.495070
0.500000
0.534480
0.560340
0.565270
0.560340
0.545570
0.519700
0.485220
0.449510
0.429800
0.419950
0.410100
0.405170
0.400250
0.400250
0.400250
0.405170
0.424880
0.475370
0.599750
0.805420
1.000000
1.019700
0.715520
0.480300
0.375620
0.354680
0.354680
0.364530
0.369460
0.375620
0.385470
0.395320
0.400250
0.410100
0.419950
0.424880
0.429800
0.434730
0.444580
0.454430
0.470440
0.485220
0.509850
0.534480
0.565270
0.594830
0.619460
0.635470
0.640390
0.635470
0.619460
0.589900
0.555420
0.514780
0.480300
0.449510
0.429800
0.419950
0.415020
0.410100
0.405170
0.405170
0.410100
0.415020
0.415020
0.415020
0.415020
0.419950
0.424880
0.429800
0.429800
0.429800
0.429800
0.429800
0.429800
0.429800
0.429800
0.429800
0.439660
0.454430
0.475370
0.480300
0.490150
0.524630
0.550490
0.555420
0.550490
0.534480
0.509850
0.470440
0.429800
0.405170
0.395320
0.390390
0.390390
0.390390
0.390390
0.390390
0.390390
0.405170
0.449510
0.560340
0.759850
0.965520
0.995070
0.709360
0.470440
0.359610
0.344830
0.354680
0.359610
0.364530
0.375620
0.385470
0.390390
0.395320
0.405170
0.415020
0.419950
0.429800
0.439660
0.449510
0.465520
0.475370
0.490150
0.509850
0.534480
0.565270
0.599750
0.624380
0.645320
0.655170
0.650250
0.630540
0.604680
0.570200
0.539410
0.504930
0.475370
0.444580
0.434730
0.424880
0.419950
0.419950
0.419950
0.419950
0.424880
0.429800
0.429800
0.429800
0.429800
0.434730
0.434730
0.434730
0.434730
0.434730
0.434730
0.439660
0.439660
0.439660
0.439660
0.449510
0.465520
0.480300
0.485220
0.504930
0.539410
0.565270
0.570200
0.550490
0.534480
0.509850
0.465520
0.429800
0.410100
0.400250
0.400250
0.395320
0.395320
0.395320
0.395320
0.400250
0.415020
0.465520
0.580050
0.779560
0.970440
0.995070
0.704430
0.470440
0.369460
0.354680
0.359610
0.364530
0.375620
0.380540
0.385470
0.390390
0.400250
0.410100
0.419950
0.424880
0.434730
0.444580
0.454430
0.465520
0.480300
0.495070
0.514780
0.539410
0.565270
0.599750
0.624380
0.645320
0.655170
0.650250
0.635470
0.604680
0.570200
0.534480
0.500000
0.475370
0.454430
0.434730
0.424880
0.419950
0.419950
0.419950
0.424880
0.424880
0.429800
0.434730
0.434730
0.434730
0.439660
0.439660
0.444580
0.444580
0.449510
0.449510
0.449510
0.449510
0.449510
0.444580
0.454430
0.480300
0.495070
0.504930
0.519700
0.555420
0.580050
0.584980
0.565270
0.545570
0.514780
0.475370
0.444580
0.419950
0.415020
0.415020
0.410100
0.410100
0.410100
0.405170
0.405170
0.424880
0.480300
0.609610
0.815270
0.995070
1.000000
0.679800
0.460590
0.375620
0.364530
0.375620
0.385470
0.390390
0.395320
0.400250
0.410100
0.410100
0.419950
0.429800
0.439660
0.449510
0.454430
0.465520
0.480300
0.490150
0.504930
0.524630
0.555420
0.584980
0.619460
0.635470
0.655170
0.660100
0.665020
0.645320
0.619460
0.584980
0.545570
0.509850
0.480300
0.460590
0.449510
0.439660
0.439660
0.434730
0.434730
0.434730
0.439660
0.439660
0.444580
0.449510
0.454430
0.454430
0.454430
0.460590
0.460590
0.465520
0.465520
0.470440
0.470440
0.475370
0.475370
0.480300
0.495070
0.514780
0.519700
0.539410
0.570200
0.589900
0.589900
0.584980
0.570200
0.539410
0.504930
0.470440
0.449510
0.434730
0.429800
0.429800
0.429800
0.429800
0.429800
0.434730
0.465520
0.529560
0.669950
0.895320
1.060300
0.975370
0.694580
0.480300
0.395320
0.390390
0.395320
0.395320
0.405170
0.410100
0.419950
0.429800
0.434730
0.439660
0.449510
0.454430
0.460590
0.470440
0.480300
0.495070
0.504930
0.519700
0.545570
0.570200
0.604680
0.630540
0.655170
0.669950
0.679800
0.669950
0.645320
0.609610
0.575120
0.534480
0.500000
0.475370
0.449510
0.434730
0.429800
0.424880
0.419950
0.419950
0.419950
0.419950
0.424880
0.429800
0.434730
0.434730
0.434730
0.434730
0.434730
0.434730
0.434730
0.434730
0.434730
0.434730
0.434730
0.434730
0.439660
0.454430
0.465520
0.475370
0.490150
0.524630
0.545570
0.550490
0.545570
0.524630
0.500000
0.470440
0.434730
0.415020
0.410100
0.405170
0.400250
0.395320
0.395320
0.395320
0.400250
0.419950
0.470440
0.594830
0.805420
0.980300
0.985220
0.669950
0.449510
0.359610
0.349750
0.359610
0.369460
0.375620
0.380540
0.385470
0.395320
0.400250
0.410100
0.415020
0.424880
0.434730
0.449510
0.454430
0.465520
0.475370
0.495070
0.514780
0.545570
0.570200
0.599750
0.624380
0.645320
0.650250
0.645320
0.624380
0.594830
0.565270
0.534480
0.500000
0.470440
0.444580
0.429800
0.419950
0.410100
0.410100
0.410100
0.410100
0.415020
0.419950
0.429800
0.429800
0.434730
0.434730
0.434730
0.439660
0.439660
0.439660
0.439660
0.439660
0.434730
0.434730
0.434730
0.449510
0.460590
0.480300
0.485220
0.509850
0.545570
0.565270
0.560340
0.555420
0.539410
0.514780
0.475370
0.439660
0.415020
0.405170
0.400250
0.395320
0.395320
0.395320
0.400250
0.410100
0.424880
0.470440
0.589900
0.795570
0.980300
1.000000
0.689660
0.460590
0.364530
0.354680
0.364530
0.369460
0.375620
0.385470
0.390390
0.395320
0.400250
0.410100
0.419950
0.429800
0.439660
0.444580
0.454430
0.465520
0.480300
0.495070
0.514780
0.539410
0.570200
0.599750
0.624380
0.645320
0.650250
0.655170
0.635470
0.609610
0.580050
0.539410
0.500000
0.470440
0.449510
0.439660
0.429800
0.424880
0.424880
0.419950
0.424880
0.429800
0.434730
0.434730
0.434730
0.439660
0.444580
0.449510
0.449510
0.449510
0.449510
0.449510
0.449510
0.449510
0.449510
0.449510
0.454430
0.470440
0.485220
0.495070
0.519700
0.560340
0.575120
0.575120
0.565270
0.539410
0.509850
0.475370
0.444580
0.424880
0.415020
0.410100
0.410100
0.410100
0.405170
0.405170
0.410100
0.429800
0.490150
0.624380
0.834980
0.990150
0.910100
0.645320
0.439660
0.364530
0.354680
0.364530
0.375620
0.380540
0.390390
0.400250
0.410100
0.415020
0.424880
0.434730
0.444580
0.454430
0.454430
0.465520
0.480300
0.500000
0.514780
0.539410
0.565270
0.594830
0.624380
0.645320
0.665020
0.674880
0.669950
0.645320
0.619460
0.584980
0.545570
0.509850
0.480300
0.460590
0.449510
0.439660
0.434730
0.429800
0.429800
0.434730
0.434730
0.434730
0.434730
0.439660
0.439660
0.449510
0.454430
0.454430
0.454430
0.454430
0.454430
0.454430
0.460590
0.460590
0.460590
0.465520
0.480300
0.495070
0.500000
0.529560
0.565270
0.580050
0.575120
0.565270
0.545570
0.514780
0.475370
0.444580
0.429800
0.424880
0.419950
0.415020
0.415020
0.415020
0.419950
0.429800
0.460590
0.529560
0.684730
0.905170
1.019700
0.869460
0.604680
0.434730
0.385470
0.385470
0.395320
0.400250
0.400250
0.410100
0.415020
0.429800
0.434730
0.444580
0.449510
0.460590
0.470440
0.480300
0.495070
0.504930
0.519700
0.534480
0.560340
0.584980
0.614530
0.645320
0.669950
0.684730
0.689660
0.679800
0.660100
0.630540
0.599750
0.560340
0.519700
0.490150
0.470440
0.460590
0.454430
0.454430
0.454430
0.449510
0.449510
0.449510
0.454430
0.460590
0.460590
0.465520
0.465520
0.465520
0.470440
0.470440
0.465520
0.465520
0.465520
0.465520
0.465520
0.470440
0.480300
0.495070
0.504930
0.514780
0.539410
0.570200
0.580050
0.570200
0.560340
0.539410
0.509850
0.470440
0.439660
0.429800
0.424880
0.419950
0.419950
0.419950
0.419950
0.419950
0.429800
0.465520
0.560340
0.750000
0.975370
1.039400
0.834980
0.565270
0.415020
0.369460
0.369460
0.369460
0.380540
0.385470
0.390390
0.395320
0.400250
0.410100
0.419950
0.429800
0.434730
0.444580
0.454430
0.465520
0.475370
0.490150
0.509850
0.529560
0.560340
0.589900
0.619460
0.640390
0.655170
0.655170
0.640390
0.614530
0.584980
0.545570
0.509850
0.475370
0.449510
0.434730
0.424880
0.415020
0.410100
0.410100
0.415020
0.419950
0.419950
0.419950
0.424880
0.429800
0.434730
0.439660
0.439660
0.439660
0.434730
0.429800
0.434730
0.439660
0.439660
0.439660
0.439660
0.454430
0.470440
0.485220
0.495070
0.524630
0.555420
0.560340
0.560340
0.545570
0.524630
0.490150
0.454430
0.429800
0.410100
0.410100
0.405170
0.400250
0.395320
0.395320
0.400250
0.415020
0.454430
0.545570
0.725370
0.939660
1.000000
0.789410
0.524630
0.385470
0.354680
0.364530
0.375620
0.380540
0.390390
0.395320
0.405170
0.415020
0.419950
0.424880
0.429800
0.434730
0.449510
0.460590
0.470440
0.485220
0.500000
0.519700
0.539410
0.570200
0.604680
0.635470
0.655170
0.665020
0.669950
0.655170
0.630540
0.594830
0.555420
0.514780
0.480300
0.454430
0.439660
0.434730
0.424880
0.419950
0.419950
0.419950
0.419950
0.419950
0.419950
0.419950
0.424880
0.429800
0.429800
0.434730
0.439660
0.439660
0.434730
0.434730
0.434730
0.434730
0.439660
0.449510
0.465520
0.480300
0.495070
0.504930
0.539410
0.565270
0.570200
0.560340
0.545570
0.519700
0.485220
0.449510
0.429800
0.415020
0.410100
0.405170
0.405170
0.400250
0.400250
0.405170
0.415020
0.454430
0.555420
0.745070
0.949510
0.995070
0.754930
0.509850
0.385470
0.364530
0.369460
0.375620
0.380540
0.385470
0.385470
0.395320
0.400250
0.415020
0.419950
0.429800
0.434730
0.449510
0.454430
0.465520
0.480300
0.500000
0.519700
0.550490
0.580050
0.604680
0.630540
0.650250
0.660100
0.660100
0.645320
0.619460
0.589900
0.555420
0.514780
0.480300
0.460590
0.439660
0.434730
0.429800
0.429800
0.419950
0.424880
0.429800
0.434730
0.434730
0.434730
0.444580
0.449510
0.449510
0.454430
0.449510
0.449510
0.449510
0.439660
0.439660
0.439660
0.449510
0.454430
0.470440
0.485220
0.495070
0.509850
0.545570
0.565270
0.570200
0.565270
0.550490
0.519700
0.490150
0.449510
0.429800
0.419950
0.419950
0.415020
0.410100
0.410100
0.410100
0.415020
0.424880
0.465520
0.565270
0.754930
0.959360
1.004900
0.750000
0.500000
0.375620
0.359610
0.369460
0.375620
0.385470
0.390390
0.400250
0.405170
0.410100
0.419950
0.429800
0.439660
0.444580
0.449510
0.460590
0.475370
0.490150
0.504930
0.524630
0.550490
0.584980
0.619460
0.645320
0.665020
0.674880
0.674880
0.655170
0.630540
0.594830
0.555420
0.519700
0.490150
0.460590
0.449510
0.449510
0.444580
0.439660
0.439660
0.439660
0.449510
0.449510
0.449510
0.449510
0.454430
0.460590
0.465520
0.465520
0.465520
0.460590
0.460590
0.465520
0.465520
0.460590
0.460590
0.470440
0.480300
0.500000
0.509850
0.524630
0.560340
0.584980
0.589900
0.575120
0.565270
0.539410
0.509850
0.475370
0.454430
0.444580
0.439660
0.434730
0.434730
0.439660
0.439660
0.439660
0.454430
0.504930
0.619460
0.830050
1.034500
1.070200
0.784480
0.529560
0.410100
0.390390
0.395320
0.395320
0.400250
0.415020
0.419950
0.429800
0.434730
0.444580
0.449510
0.454430
0.465520
0.475370
0.485220
0.495070
0.504930
0.519700
0.539410
0.570200
0.599750
0.630540
0.655170
0.674880
0.684730
0.684730
0.665020
0.635470
0.599750
0.560340
0.524630
0.490150
0.460590
0.439660
0.434730
0.429800
0.424880
0.424880
0.424880
0.429800
0.429800
0.434730
0.439660
0.439660
0.439660
0.439660
0.439660
0.439660
0.439660
0.434730
0.434730
0.429800
0.429800
0.429800
0.434730
0.444580
0.460590
0.475370
0.480300
0.509850
0.545570
0.560340
0.555420
0.545570
0.524630
0.495070
0.454430
0.424880
0.415020
0.410100
0.405170
0.405170
0.405170
0.405170
0.405170
0.415020
0.444580
0.529560
0.699510
0.919950
1.009900
0.834980
0.560340
0.395320
0.354680
0.364530
0.369460
0.375620
0.385470
0.385470
0.395320
0.400250
0.410100
0.419950
0.424880
0.429800
0.434730
0.444580
0.454430
0.465520
0.480300
0.500000
0.524630
0.550490
0.580050
0.604680
0.630540
0.640390
0.650250
0.635470
0.609610
0.580050
0.539410
0.509850
0.475370
0.454430
0.434730
0.419950
0.410100
0.410100
0.410100
0.410100
0.410100
0.415020
0.419950
0.429800
0.429800
0.429800
0.434730
0.439660
0.444580
0.444580
0.444580
0.439660
0.429800
0.429800
0.439660
0.449510
0.460590
0.475370
0.485220
0.500000
0.519700
0.555420
0.565270
0.565270
0.560340
0.539410
0.509850
0.470440
0.439660
0.429800
0.419950
0.419950
0.415020
0.415020
0.415020
0.419950
0.419950
0.444580
0.509850
0.645320
0.854680
1.009900
0.919950
0.660100
0.454430
0.385470
0.380540
0.390390
0.395320
0.395320
0.405170
0.415020
0.424880
0.429800
0.434730
0.434730
0.444580
0.454430
0.460590
0.475370
0.490150
0.500000
0.514780
0.534480
0.560340
0.584980
0.609610
0.635470
0.655170
0.660100
0.650250
0.635470
0.614530
0.580050
0.545570
0.504930
0.470440
0.449510
0.434730
0.429800
0.429800
0.429800
0.429800
0.424880
0.419950
0.424880
0.434730
0.439660
0.444580
0.439660
0.439660
0.444580
0.444580
0.439660
0.439660
0.439660
0.444580
0.449510
0.444580
0.449510
0.465520
0.480300
0.485220
0.504930
0.539410
0.565270
0.570200
0.560340
0.539410
0.509850
0.480300
0.444580
0.419950
0.405170
0.405170
0.410100
0.405170
0.400250
0.395320
0.395320
0.410100
0.449510
0.550490
0.730300
0.929800
0.975370
0.735220
0.500000
0.380540
0.354680
0.359610
0.359610
0.364530
0.369460
0.375620
0.385470
0.390390
0.400250
0.415020
0.419950
0.419950
0.424880
0.434730
0.439660
0.454430
0.470440
0.495070
0.514780
0.545570
0.575120
0.604680
0.624380
0.635470
0.640390
0.619460
0.599750
0.565270
0.529560
0.495070
0.460590
0.439660
0.424880
0.415020
0.415020
0.410100
0.410100
0.405170
0.410100
0.415020
0.419950
0.424880
0.429800
0.429800
0.434730
0.434730
0.429800
0.429800
0.429800
0.429800
0.429800
0.429800
0.429800
0.429800
0.444580
0.460590
0.470440
0.480300
0.514780
0.539410
0.550490
0.550490
0.539410
0.514780
0.480300
0.444580
0.410100
0.395320
0.390390
0.390390
0.390390
0.390390
0.390390
0.390390
0.395320
0.429800
0.519700
0.694580
0.910100
0.985220
0.800490
0.539410
0.395320
0.354680
0.354680
0.364530
0.375620
0.385470
0.390390
0.395320
0.400250
0.405170
0.415020
0.429800
0.434730
0.439660
0.449510
0.460590
0.470440
0.495070
0.514780
0.539410
0.565270
0.599750
0.624380
0.645320
0.660100
0.665020
0.650250
0.624380
0.589900
0.560340
0.524630
0.495070
0.470440
0.449510
0.434730
0.429800
0.424880
0.419950
0.419950
0.424880
0.434730
0.439660
0.439660
0.439660
0.439660
0.449510
0.454430
0.454430
0.449510
0.449510
0.449510
0.449510
0.449510
0.444580
0.449510
0.454430
0.470440
0.485220
0.495070
0.509850
0.545570
0.565270
0.565270
0.560340
0.539410
0.509850
0.475370
0.449510
0.434730
0.424880
0.419950
0.415020
0.415020
0.410100
0.410100
0.415020
0.444580
0.514780
0.669950
0.890390
1.034500
0.915020
0.640390
0.439660
0.364530
0.359610
0.364530
0.364530
0.364530
0.375620
0.385470
0.390390
0.390390
0.405170
0.419950
0.429800
0.434730
0.439660
0.454430
0.460590
0.475370
0.490150
0.514780
0.539410
0.570200
0.594830
0.619460
0.635470
0.645320
0.635470
0.609610
0.584980
0.545570
0.509850
0.475370
0.444580
0.424880
0.415020
0.410100
0.405170
0.400250
0.400250
0.400250
0.405170
0.410100
0.415020
0.419950
0.424880
0.424880
0.424880
0.424880
0.419950
0.419950
0.419950
0.429800
0.434730
0.429800
0.429800
0.434730
0.449510
0.470440
0.475370
0.495070
0.529560
0.555420
0.560340
0.550490
0.534480
0.509850
0.475370
0.439660
0.419950
0.410100
0.405170
0.400250
0.400250
0.400250
0.400250
0.405170
0.415020
0.465520
0.589900
0.795570
0.975370
0.990150
0.689660
0.465520
0.369460
0.354680
0.364530
0.369460
0.375620
0.385470
0.390390
0.395320
0.400250
0.410100
0.415020
0.424880
0.434730
0.439660
0.449510
0.460590
0.470440
0.490150
0.514780
0.539410
0.570200
0.604680
0.630540
0.650250
0.655170
0.650250
0.635470
0.609610
0.570200
0.534480
0.500000
0.470440
0.449510
0.434730
0.429800
0.424880
0.419950
0.419950
0.419950
0.424880
0.429800
0.434730
0.439660
0.444580
0.449510
0.449510
0.449510
0.454430
0.454430
0.454430
0.454430
0.449510
0.449510
0.449510
0.449510
0.465520
0.480300
0.490150
0.509850
0.550490
0.580050
0.584980
0.575120
0.565270
0.539410
0.500000
0.460590
0.434730
0.429800
0.424880
0.419950
0.419950
0.415020
0.415020
0.419950
0.429800
0.465520
0.565270
0.750000
0.959360
1.009900
0.769700
0.519700
0.400250
0.369460
0.375620
0.385470
0.390390
0.395320
0.395320
0.400250
0.410100
0.419950
0.424880
0.434730
0.439660
0.449510
0.454430
0.470440
0.485220
0.495070
0.514780
0.539410
0.565270
0.594830
0.619460
0.640390
0.655170
0.660100
0.645320
0.619460
0.584980
0.545570
0.509850
0.475370
0.449510
0.434730
0.429800
0.419950
0.419950
0.419950
0.419950
0.419950
0.424880
0.429800
0.434730
0.439660
0.444580
0.444580
0.449510
0.449510
0.454430
0.449510
0.449510
0.444580
0.444580
0.449510
0.454430
0.465520
0.480300
0.495070
0.500000
0.529560
0.565270
0.575120
0.565270
0.550490
0.519700
0.490150
0.454430
0.429800
0.410100
0.400250
0.400250
0.400250
0.400250
0.395320
0.390390
0.400250
0.434730
0.519700
0.684730
0.900250
0.980300
0.810340
0.555420
0.400250
0.359610
0.364530
0.375620
0.380540
0.390390
0.395320
0.400250
0.410100
0.415020
0.429800
0.439660
0.444580
0.449510
0.460590
0.470440
0.480300
0.500000
0.514780
0.539410
0.570200
0.604680
0.630540
0.650250
0.660100
0.669950
0.660100
0.640390
0.609610
0.570200
0.534480
0.495070
0.470440
0.454430
0.439660
0.434730
0.429800
0.429800
0.429800
0.434730
0.434730
0.439660
0.449510
0.449510
0.449510
0.449510
0.449510
0.454430
0.454430
0.449510
0.454430
0.454430
0.454430
0.454430
0.454430
0.465520
0.485220
0.504930
0.514780
0.534480
0.570200
0.589900
0.584980
0.575120
0.565270
0.539410
0.500000
0.465520
0.449510
0.444580
0.439660
0.439660
0.439660
0.434730
0.434730
0.439660
0.465520
0.529560
0.684730
0.915020
1.065300
0.944580
0.665020
0.465520
0.395320
0.395320
0.395320
0.400250
0.410100
0.415020
0.419950
0.429800
0.434730
0.444580
0.449510
0.460590
0.465520
0.475370
0.485220
0.500000
0.509850
0.529560
0.555420
0.584980
0.609610
0.640390
0.665020
0.674880
0.684730
0.674880
0.655170
0.619460
0.580050
0.539410
0.509850
0.475370
0.449510
0.434730
0.424880
0.419950
0.419950
0.415020
0.419950
0.424880
0.429800
0.429800
0.434730
0.439660
0.439660
0.439660
0.439660
0.434730
0.434730
0.439660
0.434730
0.434730
0.434730
0.434730
0.434730
0.449510
0.460590
0.475370
0.490150
0.524630
0.550490
0.560340
0.550490
0.539410
0.514780
0.480300
0.439660
0.415020
0.400250
0.400250
0.400250
0.405170
0.410100
0.405170
0.405170
0.415020
0.454430
0.565270
0.759850
0.970440
1.009900
0.750000
0.500000
0.390390
0.369460
0.375620
0.380540
0.390390
0.390390
0.395320
0.400250
0.410100
0.419950
0.429800
0.434730
0.439660
0.444580
0.454430
0.470440
0.480300
0.495070
0.519700
0.545570
0.575120
0.604680
0.630540
0.645320
0.660100
0.660100
0.650250
0.624380
0.584980
0.545570
0.509850
0.475370
0.454430
0.434730
0.424880
0.419950
0.419950
0.419950
0.419950
0.419950
0.419950
0.419950
0.424880
0.429800
0.429800
0.434730
0.434730
0.429800
0.434730
0.439660
0.439660
0.434730
0.434730
0.434730
0.439660
0.449510
0.470440
0.480300
0.490150
0.514780
0.550490
0.560340
0.560340
0.550490
0.524630
0.495070
0.454430
0.424880
0.410100
0.405170
0.400250
0.400250
0.400250
0.400250
0.400250
0.405170
0.429800
0.509850
0.674880
0.895320
0.995070
0.839900
0.570200
0.400250
0.349750
0.354680
0.359610
0.369460
0.375620
0.380540
0.390390
0.395320
0.405170
0.410100
0.415020
0.424880
0.434730
0.439660
0.454430
0.470440
0.490150
0.509850
0.529560
0.555420
0.584980
0.614530
0.635470
0.655170
0.660100
0.650250
0.624380
0.589900
0.555420
0.519700
0.490150
0.460590
0.439660
0.424880
0.419950
0.419950
0.419950
0.419950
0.419950
0.419950
0.424880
0.429800
0.434730
0.439660
0.444580
0.449510
0.449510
0.444580
0.439660
0.439660
0.439660
0.439660
0.439660
0.439660
0.449510
0.470440
0.480300
0.490150
0.514780
0.550490
0.565270
0.565270
0.560340
0.539410
0.504930
0.465520
0.434730
0.415020
0.405170
0.400250
0.400250
0.400250
0.400250
0.395320
0.400250
0.424880
0.485220
0.614530
0.825120
0.985220
0.910100
0.650250
0.444580
0.364530
0.354680
0.364530
0.369460
0.375620
0.385470
0.390390
0.400250
0.410100
0.415020
0.424880
0.429800
0.434730
0.439660
0.454430
0.465520
0.480300
0.495070
0.519700
0.550490
0.580050
0.609610
0.630540
0.650250
0.655170
0.650250
0.635470
0.604680
0.570200
0.534480
0.500000
0.470440
0.449510
0.434730
0.429800
0.424880
0.419950
0.419950
0.424880
0.429800
0.434730
0.439660
0.439660
0.439660
0.439660
0.444580
0.449510
0.444580
0.439660
0.444580
0.449510
0.449510
0.449510
0.449510
0.454430
0.470440
0.490150
0.504930
0.519700
0.555420
0.575120
0.570200
0.565270
0.545570
0.519700
0.485220
0.449510
0.434730
0.429800
0.419950
0.419950
0.415020
0.415020
0.415020
0.415020
0.429800
0.480300
0.599750
0.800490
0.985220
1.009900
0.709360
0.475370
0.380540
0.369460
0.380540
0.385470
0.390390
0.400250
0.405170
0.415020
0.424880
0.434730
0.439660
0.444580
0.454430
0.460590
0.475370
0.490150
0.504930
0.519700
0.539410
0.570200
0.599750
0.630540
0.655170
0.674880
0.684730
0.679800
0.665020
0.635470
0.599750
0.560340
0.524630
0.495070
0.475370
0.465520
0.465520
0.460590
0.460590
0.460590
0.460590
0.460590
0.465520
0.465520
0.470440
0.470440
0.475370
0.475370
0.480300
0.480300
0.480300
0.475370
0.475370
0.470440
0.470440
0.470440
0.475370
0.480300
0.495070
0.504930
0.514780
0.539410
0.565270
0.570200
0.565270
0.560340
0.534480
0.504930
0.470440
0.444580
0.429800
0.419950
0.415020
0.415020
0.415020
0.415020
0.415020
0.424880
0.465520
0.570200
0.764780
0.980300
1.029600
0.789410
0.529560
0.400250
0.364530
0.364530
0.369460
0.369460
0.375620
0.385470
0.390390
0.395320
0.400250
0.410100
0.415020
0.419950
0.429800
0.434730
0.449510
0.460590
0.475370
0.495070
0.519700
0.550490
0.580050
0.604680
0.624380
0.635470
0.640390
0.624380
0.599750
0.565270
0.529560
0.495070
0.460590
0.434730
0.415020
0.405170
0.395320
0.395320
0.395320
0.400250
0.405170
0.410100
0.410100
0.415020
0.415020
0.419950
0.424880
0.424880
0.424880
0.424880
0.424880
0.419950
0.419950
0.419950
0.419950
0.429800
0.439660
0.454430
0.465520
0.480300
0.509850
0.539410
0.550490
0.545570
0.534480
0.514780
0.485220
0.449510
0.424880
0.410100
0.400250
0.395320
0.395320
0.395320
0.400250
0.400250
0.405170
0.434730
0.509850
0.665020
0.890390
1.000000
0.839900
0.570200
0.400250
0.349750
0.354680
0.359610
0.364530
0.375620
0.380540
0.385470
0.390390
0.400250
0.410100
0.419950
0.429800
0.434730
0.444580
0.454430
0.470440
0.485220
0.504930
0.524630
0.555420
0.584980
0.609610
0.635470
0.650250
0.655170
0.645320
0.619460
0.589900
0.560340
0.524630
0.495070
0.465520
0.444580
0.434730
0.419950
0.415020
0.415020
0.419950
0.419950
0.424880
0.424880
0.424880
0.429800
0.434730
0.439660
0.439660
0.439660
0.439660
0.439660
0.434730
0.434730
0.434730
0.439660
0.439660
0.449510
0.460590
0.480300
0.485220
0.504930
0.539410
0.560340
0.565270
0.550490
0.534480
0.500000
0.460590
0.424880
0.415020
0.410100
0.405170
0.405170
0.400250
0.400250
0.400250
0.410100
0.424880
0.475370
0.594830
0.800490
0.980300
0.990150
0.679800
0.454430
0.369460
0.354680
0.364530
0.369460
0.375620
0.380540
0.385470
0.395320
0.400250
0.410100
0.419950
0.429800
0.434730
0.439660
0.449510
0.460590
0.475370
0.495070
0.519700
0.539410
0.570200
0.599750
0.624380
0.645320
0.655170
0.655170
0.640390
0.609610
0.580050
0.539410
0.500000
0.470440
0.449510
0.434730
0.429800
0.424880
0.424880
0.424880
0.419950
0.424880
0.424880
0.429800
0.429800
0.429800
0.429800
0.439660
0.449510
0.449510
0.449510
0.454430
0.454430
0.454430
0.454430
0.454430
0.454430
0.470440
0.480300
0.495070
0.509850
0.545570
0.570200
0.575120
0.570200
0.560340
0.534480
0.495070
0.454430
0.429800
0.415020
0.415020
0.415020
0.410100
0.410100
0.410100
0.410100
0.424880
0.454430
0.539410
0.709360
0.924880
1.004900
0.830050
0.565270
0.415020
0.375620
0.380540
0.385470
0.390390
0.395320
0.405170
0.415020
0.419950
0.419950
0.424880
0.434730
0.449510
0.460590
0.465520
0.470440
0.480300
0.495070
0.519700
0.545570
0.570200
0.599750
0.630540
0.655170
0.669950
0.674880
0.660100
0.640390
0.604680
0.570200
0.534480
0.504930
0.480300
0.460590
0.444580
0.439660
0.439660
0.439660
0.434730
0.434730
0.439660
0.439660
0.444580
0.449510
0.449510
0.449510
0.449510
0.449510
0.449510
0.454430
0.454430
0.460590
0.460590
0.460590
0.460590
0.465520
0.480300
0.495070
0.504930
0.519700
0.560340
0.575120
0.570200
0.565270
0.550490
0.524630
0.495070
0.460590
0.439660
0.434730
0.424880
0.424880
0.424880
0.429800
0.429800
0.434730
0.454430
0.514780
0.655170
0.880540
1.055400
0.975370
0.699510
0.480300
0.395320
0.390390
0.395320
0.395320
0.400250
0.400250
0.410100
0.415020
0.424880
0.434730
0.439660
0.449510
0.460590
0.465520
0.475370
0.490150
0.509850
0.524630
0.545570
0.580050
0.609610
0.635470
0.665020
0.679800
0.679800
0.674880
0.655170
0.624380
0.589900
0.545570
0.504930
0.470440
0.449510
0.439660
0.429800
0.419950
0.419950
0.419950
0.419950
0.424880
0.424880
0.429800
0.429800
0.434730
0.434730
0.439660
0.439660
0.439660
0.439660
0.439660
0.439660
0.434730
0.434730
0.429800
0.429800
0.439660
0.454430
0.475370
0.485220
0.509850
0.539410
0.550490
0.545570
0.539410
0.519700
0.490150
0.454430
0.424880
0.410100
0.405170
0.400250
0.400250
0.395320
0.395320
0.395320
0.405170
0.429800
0.495070
0.645320
0.869460
1.009900
0.880540
0.599750
0.410100
0.349750
0.354680
0.364530
0.369460
0.375620
0.385470
0.390390
0.400250
0.405170
0.410100
0.419950
0.424880
0.434730
0.444580
0.454430
0.470440
0.480300
0.500000
0.519700
0.545570
0.580050
0.604680
0.630540
0.650250
0.655170
0.650250
0.630540
0.599750
0.565270
0.524630
0.495070
0.465520
0.444580
0.429800
0.419950
0.415020
0.415020
0.419950
0.419950
0.419950
0.419950
0.424880
0.429800
0.434730
0.434730
0.439660
0.434730
0.434730
0.434730
0.439660
0.439660
0.439660
0.439660
0.439660
0.444580
0.454430
0.470440
0.480300
0.495070
0.529560
0.560340
0.565270
0.560340
0.545570
0.524630
0.490150
0.454430
0.424880
0.415020
0.410100
0.405170
0.400250
0.400250
0.405170
0.405170
0.415020
0.444580
0.534480
0.709360
0.934730
1.000000
0.810340
0.545570
0.395320
0.354680
0.364530
0.369460
0.375620
0.380540
0.390390
0.395320
0.400250
0.410100
0.419950
0.429800
0.439660
0.444580
0.454430
0.465520
0.475370
0.490150
0.509850
0.534480
0.565270
0.599750
0.624380
0.645320
0.655170
0.660100
0.650250
0.624380
0.589900
0.560340
0.519700
0.490150
0.465520
0.449510
0.434730
0.424880
0.419950
0.419950
0.424880
0.429800
0.429800
0.434730
0.439660
0.444580
0.449510
0.449510
0.449510
0.454430
0.454430
0.454430
0.449510
0.449510
0.449510
0.449510
0.449510
0.454430
0.470440
0.485220
0.495070
0.509850
0.545570
0.565270
0.570200
0.560340
0.545570
