-0.058594
-0.029297
0.179690
0.843750
1.318400
0.855470
0.144530
-0.070312
-0.144530
-0.193360
-0.214840
-0.214840
-0.208980
-0.214840
-0.214840
-0.205080
-0.199220
-0.199220
-0.189450
-0.183590
-0.169920
-0.164060
-0.154300
-0.154300
-0.144530
-0.144530
-0.144530
-0.134770
-0.125000
-0.128910
-0.128910
-0.125000
-0.128910
-0.119140
-0.125000
-0.099609
-0.093750
-0.074219
-0.058594
-0.044922
-0.029297
-0.009766
-0.003906
0.005859
0.000000
0.000000
0.000000
0.000000
0.000000
0.000000
0.005859
0.000000
-0.003906
-0.009766
-0.003906
-0.009766
-0.003906
-0.009766
0.000000
0.000000
0.009766
0.009766
0.009766
0.000000
0.019531
0.015625
0.054688
0.070312
0.060547
0.044922
0.070312
0.085938
0.105470
0.111330
0.099609
0.035156
-0.019531
-0.058594
-0.074219
-0.074219
-0.080078
-0.070312
-0.054688
-0.029297
0.175780
0.824220
1.343800
0.894530
0.189450
-0.039062
-0.128910
-0.169920
-0.193360
-0.199220
-0.208980
-0.208980
-0.208980
-0.205080
-0.199220
-0.189450
-0.189450
-0.179690
-0.169920
-0.164060
-0.164060
-0.164060
-0.154300
-0.154300
-0.144530
-0.138670
-0.134770
-0.134770
-0.125000
-0.128910
-0.128910
-0.138670
-0.125000
-0.125000
-0.115230
-0.103520
-0.089844
-0.070312
-0.044922
-0.025391
-0.009766
0.000000
0.000000
-0.003906
-0.009766
0.000000
-0.003906
0.000000
-0.003906
0.000000
-0.013672
-0.009766
-0.009766
-0.003906
-0.009766
0.000000
-0.009766
-0.003906
-0.009766
0.000000
-0.003906
-0.003906
-0.003906
-0.003906
-0.003906
0.031250
0.050781
0.041016
0.031250
0.054688
0.076172
0.089844
0.085938
0.089844
0.031250
-0.029297
-0.058594
-0.074219
-0.074219
-0.083984
-0.074219
-0.054688
0.009766
0.246090
0.935550
1.324200
0.824220
0.134770
-0.064453
-0.154300
-0.189450
-0.214840
-0.218750
-0.224610
-0.224610
-0.218750
-0.214840
-0.208980
-0.208980
-0.205080
-0.199220
-0.193360
-0.189450
-0.179690
-0.179690
-0.169920
-0.164060
-0.160160
-0.160160
-0.160160
-0.160160
-0.148440
-0.154300
-0.148440
-0.148440
-0.144530
-0.138670
-0.128910
-0.119140
-0.099609
-0.074219
-0.048828
-0.029297
-0.013672
0.000000
0.000000
0.000000
0.000000
0.000000
0.000000
0.000000
-0.009766
-0.003906
-0.009766
-0.003906
-0.013672
-0.013672
-0.013672
-0.003906
-0.009766
-0.003906
-0.003906
0.000000
0.000000
0.000000
0.005859
0.000000
0.025391
0.054688
0.044922
0.035156
0.041016
0.064453
0.080078
0.085938
0.089844
0.050781
-0.009766
-0.054688
-0.074219
-0.080078
-0.074219
-0.080078
-0.070312
-0.044922
0.095703
0.560550
1.269500
1.308600
0.384770
0.000000
-0.115230
-0.183590
-0.214840
-0.224610
-0.228520
-0.218750
-0.218750
-0.214840
-0.214840
-0.205080
-0.205080
-0.193360
-0.193360
-0.189450
-0.179690
-0.173830
-0.164060
-0.164060
-0.160160
-0.148440
-0.148440
-0.144530
-0.144530
-0.144530
-0.148440
-0.148440
-0.144530
-0.144530
-0.134770
-0.125000
-0.099609
-0.083984
-0.058594
-0.039062
-0.019531
-0.009766
-0.003906
0.000000
0.000000
0.000000
0.000000
-0.003906
0.000000
-0.009766
-0.013672
-0.025391
-0.025391
-0.025391
-0.025391
-0.025391
-0.019531
-0.013672
-0.013672
-0.009766
-0.009766
0.000000
-0.003906
0.000000
0.009766
0.054688
0.060547
0.044922
0.041016
0.064453
0.080078
0.085938
0.089844
0.080078
0.009766
-0.039062
-0.074219
-0.074219
-0.074219
-0.074219
-0.074219
-0.054688
0.019531
0.335940
1.039100
1.294900
0.650390
0.070312
-0.083984
-0.164060
-0.193360
-0.214840
-0.214840
-0.214840
-0.214840
-0.208980
-0.205080
-0.205080
-0.199220
-0.189450
-0.183590
-0.173830
-0.169920
-0.164060
-0.160160
-0.154300
-0.144530
-0.144530
-0.144530
-0.138670
-0.144530
-0.134770
-0.138670
-0.138670
-0.134770
-0.119140
-0.119140
-0.103520
-0.093750
-0.070312
-0.039062
-0.013672
-0.003906
0.000000
0.000000
0.000000
0.000000
0.005859
0.005859
0.000000
0.005859
-0.003906
-0.009766
-0.009766
-0.013672
-0.019531
-0.009766
-0.013672
-0.013672
-0.003906
0.000000
0.000000
0.000000
0.000000
0.009766
-0.003906
0.000000
0.031250
0.070312
0.050781
0.041016
0.044922
0.085938
0.095703
0.095703
0.099609
0.064453
0.000000
-0.044922
-0.070312
-0.074219
-0.074219
-0.074219
-0.064453
-0.048828
0.041016
0.480470
1.240200
1.324200
0.445310
-0.009766
-0.115230
-0.173830
-0.189450
-0.214840
-0.218750
-0.218750
-0.214840
-0.208980
-0.205080
-0.193360
-0.189450
-0.183590
-0.179690
-0.164060
-0.160160
-0.148440
-0.148440
-0.144530
-0.144530
-0.134770
-0.128910
-0.125000
-0.119140
-0.125000
-0.125000
-0.119140
-0.119140
-0.109380
-0.093750
-0.089844
-0.080078
-0.054688
-0.029297
-0.013672
-0.003906
0.000000
0.005859
0.000000
0.005859
0.000000
0.000000
0.009766
0.015625
-0.009766
-0.009766
-0.013672
-0.003906
-0.009766
-0.013672
-0.013672
-0.009766
-0.003906
0.000000
0.005859
0.005859
0.005859
0.000000
-0.003906
0.015625
0.044922
0.054688
0.044922
0.041016
0.070312
0.085938
0.095703
0.099609
0.080078
0.015625
-0.035156
-0.070312
-0.074219
-0.074219
-0.080078
-0.074219
-0.048828
0.015625
0.380860
1.154300
1.353500
0.589840
0.041016
-0.093750
-0.164060
-0.189450
-0.208980
-0.214840
-0.214840
-0.214840
-0.214840
-0.199220
-0.205080
-0.193360
-0.189450
-0.183590
-0.179690
-0.169920
-0.169920
-0.160160
-0.154300
-0.148440
-0.144530
-0.144530
-0.138670
-0.134770
-0.128910
-0.134770
-0.138670
-0.134770
-0.125000
-0.119140
-0.103520
-0.093750
-0.074219
-0.054688
-0.025391
-0.019531
-0.003906
-0.009766
0.000000
0.000000
0.000000
-0.003906
0.000000
-0.003906
0.000000
0.000000
0.000000
-0.009766
-0.009766
-0.009766
-0.009766
-0.003906
-0.009766
-0.003906
-0.009766
0.000000
-0.003906
0.000000
0.000000
-0.003906
-0.003906
0.019531
0.044922
0.044922
0.025391
0.041016
0.070312
0.089844
0.085938
0.089844
0.041016
-0.013672
-0.054688
-0.074219
-0.080078
-0.083984
-0.080078
-0.070312
-0.013672
0.185550
0.798830
1.334000
0.919920
0.201170
-0.048828
-0.148440
-0.189450
-0.214840
-0.218750
-0.218750
-0.218750
-0.218750
-0.214840
-0.208980
-0.214840
-0.205080
-0.199220
-0.189450
-0.189450
-0.179690
-0.169920
-0.164060
-0.164060
-0.164060
-0.160160
-0.154300
-0.154300
-0.148440
-0.154300
-0.144530
-0.148440
-0.144530
-0.144530
-0.134770
-0.128910
-0.103520
-0.080078
-0.048828
-0.035156
-0.013672
-0.003906
0.000000
0.005859
0.000000
0.005859
0.000000
0.000000
0.000000
0.000000
0.000000
-0.003906
-0.009766
-0.003906
-0.009766
-0.009766
-0.009766
0.000000
0.000000
-0.003906
-0.003906
0.000000
-0.003906
-0.003906
0.005859
0.050781
0.060547
0.044922
0.035156
0.064453
0.085938
0.085938
0.089844
0.076172
0.009766
-0.039062
-0.070312
-0.074219
-0.080078
-0.080078
-0.074219
-0.048828
0.041016
0.390620
1.128900
1.330100
0.583980
0.050781
-0.093750
-0.169920
-0.199220
-0.214840
-0.214840
-0.218750
-0.214840
-0.208980
-0.205080
-0.199220
-0.199220
-0.189450
-0.189450
-0.179690
-0.179690
-0.164060
-0.164060
-0.160160
-0.154300
-0.148440
-0.144530
-0.144530
-0.144530
-0.138670
-0.144530
-0.138670
-0.144530
-0.134770
-0.128910
-0.115230
-0.099609
-0.074219
-0.048828
-0.029297
-0.013672
-0.003906
0.000000
0.000000
0.000000
0.000000
0.000000
0.000000
0.000000
-0.009766
-0.003906
-0.013672
-0.009766
-0.019531
-0.013672
-0.019531
-0.009766
-0.013672
-0.003906
-0.003906
0.000000
-0.003906
0.000000
0.000000
0.000000
0.019531
0.060547
0.054688
0.044922
0.041016
0.064453
0.089844
0.085938
0.089844
0.054688
-0.009766
-0.054688
-0.074219
-0.083984
-0.080078
-0.083984
-0.070312
-0.039062
0.095703
0.529300
1.240200
1.269500
0.390620
-0.013672
-0.119140
-0.173830
-0.205080
-0.214840
-0.218750
-0.218750
-0.214840
-0.214840
-0.214840
-0.205080
-0.208980
-0.193360
-0.189450
-0.183590
-0.179690
-0.164060
-0.164060
-0.154300
-0.148440
-0.144530
-0.144530
-0.144530
-0.144530
-0.138670
-0.144530
-0.144530
-0.134770
-0.128910
-0.115230
-0.109380
-0.089844
-0.074219
-0.048828
-0.025391
-0.009766
-0.003906
0.000000
-0.003906
0.005859
0.000000
0.000000
-0.003906
-0.009766
-0.013672
-0.013672
-0.025391
-0.025391
-0.019531
-0.025391
-0.019531
-0.025391
-0.013672
-0.019531
-0.009766
-0.003906
0.000000
0.000000
0.009766
0.041016
0.054688
0.041016
0.035156
0.050781
0.089844
0.089844
0.095703
0.099609
0.041016
-0.029297
-0.064453
-0.074219
-0.074219
-0.080078
-0.074219
-0.064453
-0.029297
0.125000
0.714840
1.314500
0.955080
0.224610
-0.054688
-0.134770
-0.183590
-0.199220
-0.214840
-0.214840
-0.214840
-0.214840
-0.214840
-0.199220
-0.193360
-0.189450
-0.189450
-0.179690
-0.179690
-0.164060
-0.164060
-0.160160
-0.154300
-0.148440
-0.138670
-0.134770
-0.128910
-0.138670
-0.134770
-0.134770
-0.125000
-0.119140
-0.109380
-0.099609
-0.083984
-0.070312
-0.048828
-0.035156
-0.019531
0.000000
0.000000
-0.009766
0.000000
-0.003906
0.000000
-0.009766
0.000000
-0.013672
-0.009766
-0.013672
-0.003906
0.000000
-0.013672
-0.009766
-0.013672
0.000000
-0.003906
0.000000
0.000000
0.000000
0.000000
0.005859
0.000000
0.025391
0.060547
0.054688
0.041016
0.035156
0.070312
0.089844
0.095703
0.089844
0.064453
0.005859
-0.048828
-0.074219
-0.080078
-0.080078
-0.074219
-0.080078
-0.048828
0.041016
0.494140
1.253900
1.343800
0.439450
0.000000
-0.115230
-0.173830
-0.199220
-0.208980
-0.218750
-0.214840
-0.214840
-0.208980
-0.205080
-0.199220
-0.193360
-0.189450
-0.183590
-0.183590
-0.173830
-0.164060
-0.164060
-0.154300
-0.144530
-0.144530
-0.138670
-0.144530
-0.138670
-0.138670
-0.134770
-0.138670
-0.134770
-0.134770
-0.119140
-0.119140
-0.093750
-0.083984
-0.054688
-0.039062
-0.025391
-0.019531
-0.009766
0.000000
0.000000
0.000000
0.000000
0.000000
0.000000
0.000000
-0.003906
-0.003906
-0.013672
-0.003906
-0.009766
-0.009766
-0.013672
-0.009766
-0.013672
-0.009766
-0.013672
-0.003906
-0.009766
-0.009766
0.000000
0.035156
0.050781
0.044922
0.031250
0.060547
0.080078
0.085938
0.089844
0.095703
0.025391
-0.029297
-0.064453
-0.074219
-0.074219
-0.074219
-0.070312
-0.054688
0.015625
0.294920
0.984380
1.318400
0.759770
0.121090
-0.064453
-0.160160
-0.193360
-0.214840
-0.214840
-0.218750
-0.224610
-0.214840
-0.214840
-0.205080
-0.205080
-0.193360
-0.189450
-0.183590
-0.179690
-0.169920
-0.169920
-0.160160
-0.160160
-0.144530
-0.144530
-0.144530
-0.144530
-0.144530
-0.144530
-0.144530
-0.144530
-0.138670
-0.134770
-0.119140
-0.109380
-0.089844
-0.064453
-0.039062
-0.019531
-0.003906
0.000000
0.000000
0.005859
0.005859
0.009766
0.009766
0.005859
0.000000
0.000000
-0.003906
-0.003906
-0.009766
-0.003906
-0.009766
-0.003906
-0.009766
0.000000
0.000000
0.000000
0.000000
0.000000
0.000000
0.025391
0.064453
0.054688
0.044922
0.041016
0.070312
0.085938
0.089844
0.095703
0.060547
-0.003906
-0.048828
-0.074219
-0.074219
-0.080078
-0.080078
-0.074219
-0.035156
0.089844
0.564450
1.253900
1.308600
0.400390
-0.003906
-0.125000
-0.179690
-0.205080
-0.214840
-0.218750
-0.224610
-0.214840
-0.214840
-0.208980
-0.205080
-0.193360
-0.199220
-0.183590
-0.189450
-0.173830
-0.169920
-0.164060
-0.164060
-0.154300
-0.154300
-0.148440
-0.144530
-0.144530
-0.144530
-0.148440
-0.148440
-0.144530
-0.144530
-0.134770
-0.119140
-0.099609
-0.074219
-0.054688
-0.035156
-0.019531
-0.003906
-0.003906
0.000000
0.000000
0.000000
0.000000
0.000000
0.000000
0.000000
-0.003906
-0.009766
-0.003906
-0.013672
-0.003906
-0.009766
0.000000
-0.003906
0.000000
-0.003906
-0.003906
-0.009766
0.000000
0.000000
0.015625
0.050781
0.064453
0.044922
0.041016
0.064453
0.089844
0.089844
0.099609
0.076172
0.019531
-0.035156
-0.064453
-0.074219
-0.070312
-0.064453
-0.070312
-0.039062
0.054688
0.400390
1.138700
1.314500
0.564450
0.041016
-0.093750
-0.160160
-0.193360
-0.205080
-0.214840
-0.208980
-0.208980
-0.205080
-0.199220
-0.189450
-0.189450
-0.183590
-0.179690
-0.173830
-0.169920
-0.173830
-0.164060
-0.154300
-0.144530
-0.144530
-0.138670
-0.144530
-0.138670
-0.138670
-0.134770
-0.138670
-0.125000
-0.128910
-0.109380
-0.099609
-0.080078
-0.064453
-0.035156
-0.025391
-0.003906
0.005859
0.015625
0.005859
0.005859
0.000000
0.000000
0.005859
0.000000
0.000000
0.000000
-0.009766
-0.019531
-0.013672
-0.019531
-0.013672
-0.019531
-0.003906
-0.003906
0.000000
0.000000
0.005859
0.000000
0.005859
0.005859
0.044922
0.070312
0.050781
0.035156
0.050781
0.076172
0.095703
0.105470
0.105470
0.041016
-0.013672
-0.058594
-0.074219
-0.080078
-0.083984
-0.074219
-0.058594
-0.025391
0.160160
0.810550
1.334000
0.919920
0.175780
-0.064453
-0.144530
-0.183590
-0.208980
-0.214840
-0.214840
-0.208980
-0.205080
-0.208980
-0.199220
-0.189450
-0.183590
-0.189450
-0.169920
-0.160160
-0.148440
-0.148440
-0.144530
-0.144530
-0.134770
-0.134770
-0.125000
-0.128910
-0.119140
-0.119140
-0.115230
-0.115230
-0.109380
-0.103520
-0.093750
-0.089844
-0.070312
-0.048828
-0.029297
-0.019531
-0.009766
0.000000
0.000000
0.000000
0.000000
0.005859
0.000000
0.000000
0.000000
-0.009766
-0.003906
0.000000
-0.003906
-0.003906
-0.013672
0.000000
0.005859
0.005859
0.000000
0.000000
0.005859
0.005859
0.000000
-0.003906
0.031250
0.060547
0.054688
0.044922
0.041016
0.070312
0.089844
0.099609
0.111330
0.076172
0.005859
-0.048828
-0.064453
-0.074219
-0.074219
-0.074219
-0.054688
-0.035156
0.089844
0.619140
1.308600
1.070300
0.339840
-0.019531
-0.119140
-0.173830
-0.199220
-0.214840
-0.214840
-0.214840
-0.214840
-0.208980
-0.214840
-0.199220
-0.193360
-0.189450
-0.189450
-0.179690
-0.173830
-0.164060
-0.164060
-0.154300
-0.160160
-0.144530
-0.144530
-0.144530
-0.138670
-0.138670
-0.138670
-0.134770
-0.134770
-0.128910
-0.119140
-0.109380
-0.089844
-0.064453
-0.044922
-0.025391
-0.013672
-0.003906
0.000000
0.000000
0.000000
-0.009766
0.000000
-0.003906
-0.009766
-0.009766
-0.009766
-0.009766
-0.009766
-0.009766
-0.003906
0.000000
0.000000
0.000000
0.000000
0.000000
0.000000
0.000000
0.000000
0.000000
0.000000
0.019531
0.050781
0.050781
0.035156
0.044922
0.070312
0.089844
0.089844
0.099609
0.054688
0.000000
-0.048828
-0.074219
-0.074219
-0.074219
-0.074219
-0.058594
-0.025391
0.166020
0.705080
1.330100
1.003900
0.275390
-0.029297
-0.128910
-0.179690
-0.205080
-0.214840
-0.218750
-0.214840
-0.214840
-0.205080
-0.205080
-0.199220
-0.193360
-0.189450
-0.183590
-0.173830
-0.169920
-0.164060
-0.160160
-0.148440
-0.144530
-0.144530
-0.138670
-0.144530
-0.138670
-0.144530
-0.148440
-0.148440
-0.144530
-0.144530
-0.125000
-0.119140
-0.099609
-0.074219
-0.048828
-0.029297
-0.013672
0.000000
0.005859
0.009766
0.015625
0.009766
0.005859
0.005859
0.000000
0.000000
0.000000
0.000000
0.000000
-0.009766
-0.013672
-0.009766
-0.013672
-0.003906
-0.009766
0.000000
0.000000
0.000000
0.000000
0.009766
0.041016
0.064453
0.054688
0.044922
0.060547
0.085938
0.089844
0.095703
0.099609
0.035156
-0.019531
-0.054688
-0.074219
-0.074219
-0.074219
-0.070312
-0.048828
0.005859
0.246090
0.935550
1.304700
0.810550
0.134770
-0.064453
-0.148440
-0.193360
-0.208980
-0.214840
-0.214840
-0.214840
-0.208980
-0.208980
-0.205080
-0.199220
-0.189450
-0.189450
-0.189450
-0.173830
-0.169920
-0.164060
-0.160160
-0.154300
-0.148440
-0.144530
-0.144530
-0.138670
-0.144530
-0.138670
-0.144530
-0.144530
-0.144530
-0.128910
-0.119140
-0.103520
-0.093750
-0.058594
-0.039062
-0.025391
-0.003906
0.000000
0.005859
0.015625
0.009766
0.005859
0.000000
0.000000
0.000000
0.000000
0.000000
0.000000
-0.003906
-0.003906
-0.003906
-0.003906
-0.003906
-0.003906
0.000000
0.000000
0.005859
0.000000
0.005859
0.035156
0.070312
0.060547
0.044922
0.054688
0.085938
0.095703
0.099609
0.095703
0.054688
-0.009766
-0.054688
-0.064453
-0.074219
-0.074219
-0.074219
-0.058594
-0.019531
0.169920
0.730470
1.308600
0.939450
0.230470
-0.044922
-0.134770
-0.183590
-0.205080
-0.214840
-0.214840
-0.214840
-0.214840
-0.205080
-0.199220
-0.193360
-0.189450
-0.183590
-0.189450
-0.179690
-0.173830
-0.164060
-0.160160
-0.148440
-0.144530
-0.144530
-0.144530
-0.138670
-0.138670
-0.134770
-0.144530
-0.138670
-0.138670
-0.125000
-0.119140
-0.099609
-0.083984
-0.064453
-0.039062
-0.013672
0.000000
0.000000
0.000000
0.009766
0.009766
0.000000
0.000000
-0.009766
-0.003906
-0.009766
-0.003906
-0.009766
-0.013672
-0.019531
-0.013672
-0.019531
-0.013672
-0.009766
-0.003906
0.000000
0.000000
0.005859
0.000000
0.035156
0.064453
0.054688
0.035156
0.054688
0.085938
0.099609
0.099609
0.105470
0.044922
-0.009766
-0.058594
-0.074219
-0.074219
-0.074219
-0.080078
-0.058594
-0.035156
0.150390
0.765620
1.334000
0.919920
0.210940
-0.054688
-0.138670
-0.179690
-0.208980
-0.214840
-0.214840
-0.208980
-0.205080
-0.193360
-0.189450
-0.179690
-0.179690
-0.173830
-0.169920
-0.164060
-0.164060
-0.160160
-0.148440
-0.144530
-0.134770
-0.125000
-0.119140
-0.119140
-0.115230
-0.119140
-0.119140
-0.115230
-0.103520
-0.099609
-0.089844
-0.074219
-0.064453
-0.048828
-0.025391
-0.003906
0.000000
-0.003906
0.005859
0.000000
0.005859
0.000000
0.000000
-0.013672
-0.003906
-0.009766
-0.013672
-0.019531
-0.013672
-0.013672
-0.009766
-0.013672
-0.003906
0.000000
-0.003906
0.005859
0.000000
0.005859
0.015625
0.050781
0.064453
0.050781
0.044922
0.064453
0.089844
0.099609
0.095703
0.111330
0.041016
-0.019531
-0.058594
-0.070312
-0.074219
-0.070312
-0.074219
-0.054688
-0.003906
0.294920
1.054700
1.334000
0.740230
0.089844
-0.083984
-0.160160
-0.199220
-0.214840
-0.218750
-0.224610
-0.218750
-0.218750
-0.214840
-0.208980
-0.193360
-0.189450
-0.189450
-0.183590
-0.173830
-0.169920
-0.164060
-0.160160
-0.148440
-0.144530
-0.138670
-0.134770
-0.128910
-0.125000
-0.134770
-0.128910
-0.138670
-0.134770
-0.119140
-0.109380
-0.099609
-0.080078
-0.058594
-0.029297
-0.025391
-0.009766
-0.003906
0.000000
0.000000
0.005859
0.000000
0.000000
-0.003906
-0.003906
-0.003906
-0.003906
-0.009766
-0.003906
-0.009766
-0.009766
-0.003906
-0.009766
-0.003906
-0.003906
0.000000
-0.003906
0.000000
0.015625
0.054688
0.044922
0.041016
0.041016
0.070312
0.085938
0.089844
0.095703
0.060547
0.000000
-0.044922
-0.070312
-0.074219
-0.080078
-0.080078
-0.070312
-0.035156
0.121090
0.628910
1.308600
1.074200
0.345700
-0.013672
-0.119140
-0.173830
-0.199220
-0.214840
-0.218750
-0.224610
-0.214840
-0.214840
-0.214840
-0.208980
-0.214840
-0.199220
-0.189450
-0.189450
-0.179690
-0.173830
-0.164060
-0.164060
-0.160160
-0.154300
-0.154300
-0.148440
-0.154300
-0.148440
-0.148440
-0.148440
-0.154300
-0.144530
-0.134770
-0.119140
-0.099609
-0.080078
-0.054688
-0.025391
-0.009766
0.000000
-0.003906
0.000000
0.000000
0.005859
0.000000
0.005859
0.000000
0.000000
0.000000
-0.009766
-0.013672
-0.013672
-0.013672
-0.013672
-0.009766
-0.009766
0.000000
0.000000
0.000000
0.000000
0.025391
0.060547
0.064453
0.050781
0.041016
0.070312
0.089844
0.095703
0.099609
0.076172
0.009766
-0.039062
-0.064453
-0.074219
-0.074219
-0.070312
-0.064453
-0.035156
0.060547
0.455080
1.169900
1.324200
0.509770
0.035156
-0.103520
-0.164060
-0.199220
-0.208980
-0.214840
-0.214840
-0.208980
-0.205080
-0.199220
-0.193360
-0.189450
-0.183590
-0.173830
-0.173830
-0.169920
-0.169920
-0.160160
-0.164060
-0.148440
-0.148440
-0.144530
-0.144530
-0.144530
-0.144530
-0.144530
-0.144530
-0.138670
-0.138670
-0.125000
-0.119140
-0.099609
-0.083984
-0.054688
-0.029297
-0.013672
0.000000
0.000000
0.005859
0.005859
0.009766
0.000000
0.000000
0.000000
0.000000
-0.003906
-0.009766
-0.013672
-0.009766
-0.013672
-0.013672
-0.013672
-0.003906
-0.003906
0.000000
-0.003906
0.000000
0.000000
0.044922
0.064453
0.044922
0.041016
0.064453
0.089844
0.089844
0.089844
0.095703
0.031250
-0.025391
-0.064453
-0.074219
-0.074219
-0.074219
-0.070312
-0.054688
0.005859
0.230470
0.919920
1.298800
0.798830
0.121090
-0.064453
-0.148440
-0.189450
-0.214840
-0.214840
-0.214840
-0.214840
-0.208980
-0.205080
-0.199220
-0.193360
-0.189450
-0.189450
-0.179690
-0.173830
-0.169920
-0.164060
-0.160160
-0.154300
-0.144530
-0.144530
-0.134770
-0.138670
-0.134770
-0.134770
-0.128910
-0.128910
-0.119140
-0.119140
-0.103520
-0.093750
-0.070312
-0.044922
-0.025391
0.000000
0.000000
0.000000
0.000000
0.000000
0.000000
0.000000
0.000000
0.000000
0.000000
-0.003906
-0.003906
-0.009766
-0.013672
-0.019531
-0.013672
-0.013672
-0.009766
-0.003906
-0.003906
0.000000
0.000000
0.015625
0.041016
0.070312
0.054688
0.035156
0.060547
0.085938
0.095703
0.099609
0.095703
0.050781
-0.009766
-0.058594
-0.070312
-0.074219
-0.074219
-0.074219
-0.058594
-0.035156
0.130860
0.705080
1.324200
0.958980
0.250000
-0.048828
-0.134770
-0.189450
-0.208980
-0.214840
-0.218750
-0.214840
-0.208980
-0.205080
-0.205080
-0.189450
-0.189450
-0.183590
-0.183590
-0.169920
-0.173830
-0.160160
-0.154300
-0.148440
-0.144530
-0.138670
-0.138670
-0.134770
-0.128910
-0.138670
-0.128910
-0.134770
-0.125000
-0.115230
-0.093750
-0.093750
-0.074219
-0.054688
-0.035156
-0.025391
-0.009766
0.000000
0.005859
0.000000
-0.003906
-0.003906
-0.009766
-0.013672
-0.009766
-0.013672
-0.019531
-0.009766
-0.009766
-0.019531
-0.019531
-0.009766
-0.003906
-0.009766
-0.003906
-0.003906
-0.009766
-0.003906
0.025391
0.050781
0.044922
0.035156
0.050781
0.080078
0.095703
0.099609
0.095703
0.050781
-0.019531
-0.058594
-0.074219
-0.074219
-0.080078
-0.083984
-0.064453
-0.035156
0.121090
0.720700
1.349600
1.003900
0.259770
-0.039062
-0.134770
-0.189450
-0.205080
-0.214840
-0.218750
-0.218750
-0.214840
-0.214840
-0.205080
-0.199220
-0.189450
-0.189450
-0.183590
-0.179690
-0.169920
-0.169920
-0.164060
-0.160160
-0.148440
-0.144530
-0.144530
-0.138670
-0.138670
-0.138670
-0.144530
-0.144530
-0.138670
-0.119140
-0.125000
-0.103520
-0.093750
-0.064453
-0.048828
-0.025391
-0.019531
-0.003906
-0.003906
0.000000
0.000000
0.000000
-0.009766
-0.003906
-0.003906
-0.009766
0.000000
-0.013672
-0.009766
-0.013672
-0.009766
-0.013672
-0.003906
-0.009766
-0.003906
-0.009766
-0.003906
-0.009766
0.009766
0.041016
0.050781
0.035156
0.041016
0.064453
0.080078
0.089844
0.085938
0.060547
0.000000
-0.054688
-0.074219
-0.080078
-0.083984
-0.080078
-0.074219
-0.048828
0.076172
0.525390
1.228500
1.324200
0.445310
0.005859
-0.125000
-0.183590
-0.214840
-0.224610
-0.228520
-0.218750
-0.218750
-0.214840
-0.214840
-0.214840
-0.205080
-0.193360
-0.193360
-0.189450
-0.183590
-0.179690
-0.164060
-0.164060
-0.160160
-0.160160
-0.154300
-0.160160
-0.148440
-0.154300
-0.154300
-0.160160
-0.154300
-0.148440
-0.138670
-0.134770
-0.109380
-0.093750
-0.070312
-0.044922
-0.025391
-0.013672
-0.003906
0.000000
0.000000
0.000000
0.000000
0.000000
0.000000
-0.009766
-0.013672
-0.009766
-0.013672
-0.019531
-0.025391
-0.019531
-0.025391
-0.019531
-0.025391
-0.013672
-0.013672
-0.003906
0.025391
0.054688
0.044922
0.041016
0.050781
0.076172
0.085938
0.089844
0.095703
0.035156
-0.019531
-0.054688
-0.074219
-0.080078
-0.074219
-0.074219
-0.064453
-0.029297
0.140620
0.689450
1.308600
0.984380
0.269530
-0.035156
-0.134770
-0.189450
-0.205080
-0.224610
-0.218750
-0.224610
-0.218750
-0.214840
-0.214840
-0.205080
-0.199220
-0.189450
-0.189450
-0.183590
-0.179690
-0.173830
-0.169920
-0.164060
-0.160160
-0.144530
-0.144530
-0.144530
-0.144530
-0.144530
-0.144530
-0.144530
-0.144530
-0.138670
-0.125000
-0.109380
-0.093750
-0.074219
-0.048828
-0.025391
-0.013672
-0.003906
0.000000
0.000000
0.000000
-0.003906
-0.003906
-0.009766
-0.009766
-0.013672
-0.013672
-0.025391
-0.025391
-0.025391
-0.013672
-0.019531
-0.013672
-0.019531
-0.009766
-0.003906
0.000000
0.000000
0.025391
0.054688
0.050781
0.035156
0.041016
0.070312
0.089844
0.089844
0.095703
0.060547
-0.003906
-0.048828
-0.070312
-0.074219
-0.074219
-0.070312
-0.064453
-0.029297
0.085938
0.554690
1.234400
1.285200
0.375000
-0.003906
-0.119140
-0.169920
-0.205080
-0.214840
-0.218750
-0.214840
-0.218750
-0.214840
-0.208980
-0.205080
-0.199220
-0.189450
-0.183590
-0.179690
-0.169920
-0.164060
-0.164060
-0.160160
-0.154300
-0.148440
-0.154300
-0.144530
-0.138670
-0.144530
-0.138670
-0.144530
-0.134770
-0.134770
-0.119140
-0.103520
-0.083984
-0.070312
-0.044922
-0.025391
-0.013672
0.000000
0.005859
0.009766
0.000000
0.005859
0.000000
0.000000
0.000000
0.000000
-0.003906
-0.003906
-0.013672
-0.013672
-0.019531
-0.013672
-0.013672
-0.003906
-0.009766
-0.003906
0.000000
0.000000
0.015625
0.054688
0.064453
0.044922
0.041016
0.076172
0.089844
0.105470
0.105470
0.080078
0.009766
-0.035156
-0.058594
-0.070312
-0.074219
-0.074219
-0.070312
-0.054688
0.000000
0.285160
1.048800
1.308600
0.695310
0.060547
-0.083984
-0.154300
-0.193360
-0.208980
-0.208980
-0.214840
-0.208980
-0.205080
-0.208980
-0.189450
-0.189450
-0.179690
-0.179690
-0.179690
-0.169920
-0.160160
-0.154300
-0.148440
-0.138670
-0.134770
-0.138670
-0.128910
-0.125000
-0.119140
-0.119140
-0.119140
-0.109380
-0.115230
-0.093750
-0.080078
-0.070312
-0.048828
-0.039062
-0.025391
0.000000
0.000000
0.000000
0.000000
0.000000
-0.003906
0.000000
-0.003906
0.000000
-0.009766
-0.003906
0.000000
-0.003906
-0.009766
-0.013672
-0.003906
0.000000
-0.003906
-0.009766
0.000000
0.000000
0.009766
0.005859
0.050781
0.064453
0.054688
0.044922
0.064453
0.076172
0.089844
0.095703
0.105470
0.031250
-0.019531
-0.064453
-0.074219
-0.074219
-0.074219
-0.074219
-0.054688
-0.029297
0.201170
0.865230
1.343800
0.859380
0.175780
-0.054688
-0.138670
-0.179690
-0.205080
-0.214840
-0.214840
-0.208980
-0.208980
-0.205080
-0.208980
-0.199220
-0.193360
-0.189450
-0.183590
-0.173830
-0.169920
-0.164060
-0.160160
-0.154300
-0.148440
-0.144530
-0.144530
-0.138670
-0.144530
-0.144530
-0.138670
-0.144530
-0.134770
-0.134770
-0.119140
-0.115230
-0.093750
-0.070312
-0.039062
-0.025391
-0.009766
-0.009766
0.000000
-0.003906
0.000000
-0.009766
-0.003906
-0.003906
-0.003906
0.000000
-0.003906
-0.009766
-0.009766
-0.009766
-0.009766
-0.009766
-0.003906
0.000000
-0.003906
0.000000
-0.003906
0.000000
-0.003906
0.035156
0.054688
0.050781
0.031250
0.054688
0.080078
0.089844
0.089844
0.095703
0.035156
-0.019531
-0.070312
-0.074219
-0.070312
-0.074219
-0.074219
-0.054688
-0.013672
0.195310
0.820310
1.349600
0.939450
0.205080
-0.039062
-0.138670
-0.183590
-0.214840
-0.214840
-0.214840
-0.214840
-0.214840
-0.208980
-0.205080
-0.199220
-0.199220
-0.189450
-0.189450
-0.179690
-0.179690
-0.173830
-0.164060
-0.160160
-0.154300
-0.154300
-0.148440
-0.144530
-0.144530
-0.148440
-0.144530
-0.148440
-0.144530
-0.144530
-0.128910
-0.119140
-0.093750
-0.070312
-0.039062
-0.025391
-0.009766
0.000000
0.000000
0.005859
0.005859
0.000000
0.000000
0.000000
0.000000
-0.009766
-0.013672
-0.009766
-0.013672
-0.013672
-0.013672
-0.013672
-0.019531
-0.013672
-0.009766
0.000000
0.000000
0.000000
0.005859
0.050781
0.060547
0.050781
0.035156
0.054688
0.080078
0.085938
0.085938
0.089844
0.015625
-0.035156
-0.064453
-0.074219
-0.070312
-0.080078
-0.074219
-0.058594
0.005859
0.250000
0.958980
1.298800
0.769530
0.111330
-0.070312
-0.160160
-0.193360
-0.214840
-0.214840
-0.224610
-0.214840
-0.214840
-0.214840
-0.208980
-0.205080
-0.193360
-0.189450
-0.183590
-0.179690
-0.173830
-0.164060
-0.160160
-0.164060
-0.144530
-0.144530
-0.144530
-0.144530
-0.138670
-0.144530
-0.144530
-0.144530
-0.134770
-0.134770
-0.119140
-0.115230
-0.089844
-0.058594
-0.039062
-0.025391
-0.003906
0.000000
0.005859
0.009766
0.000000
0.000000
0.000000
0.000000
0.000000
-0.003906
-0.009766
-0.003906
-0.013672
-0.013672
-0.013672
-0.003906
-0.013672
-0.003906
-0.009766
-0.003906
0.000000
0.000000
0.000000
0.019531
0.054688
0.054688
0.041016
0.031250
0.070312
0.085938
0.089844
0.095703
0.070312
0.005859
-0.044922
-0.074219
-0.074219
-0.074219
-0.074219
-0.074219
-0.044922
0.044922
0.429690
1.169900
1.314500
0.509770
0.019531
-0.103520
-0.164060
-0.193360
-0.205080
-0.208980
-0.214840
-0.214840
-0.208980
-0.199220
-0.205080
-0.193360
-0.199220
-0.189450
-0.179690
-0.169920
-0.169920
-0.164060
-0.160160
-0.154300
-0.148440
-0.138670
-0.134770
-0.138670
-0.128910
-0.144530
-0.134770
-0.138670
-0.125000
-0.119140
-0.109380
-0.089844
-0.070312
-0.044922
-0.025391
-0.003906
0.000000
0.000000
0.000000
0.000000
-0.003906
-0.009766
-0.003906
-0.009766
-0.003906
-0.013672
-0.009766
-0.013672
-0.013672
-0.019531
-0.009766
-0.009766
-0.003906
-0.003906
0.000000
0.000000
0.000000
0.000000
0.025391
0.060547
0.044922
0.050781
0.035156
0.070312
0.085938
0.089844
0.095703
0.099609
0.005859
-0.044922
-0.074219
-0.074219
-0.083984
-0.080078
-0.074219
-0.048828
0.015625
0.355470
1.125000
1.314500
0.595700
0.035156
-0.089844
-0.164060
-0.193360
-0.205080
-0.218750
-0.214840
-0.208980
-0.208980
-0.199220
-0.199220
-0.183590
-0.189450
-0.173830
-0.164060
-0.160160
-0.154300
-0.144530
-0.144530
-0.144530
-0.138670
-0.125000
-0.128910
-0.125000
-0.125000
-0.115230
-0.119140
-0.115230
-0.109380
-0.115230
-0.093750
-0.080078
-0.058594
-0.039062
-0.019531
-0.009766
-0.003906
-0.003906
-0.003906
-0.003906
0.005859
0.005859
0.005859
0.000000
0.000000
-0.009766
-0.013672
-0.009766
-0.019531
-0.013672
-0.019531
-0.013672
-0.009766
0.000000
-0.003906
-0.003906
-0.003906
0.000000
-0.003906
0.035156
0.054688
0.050781
0.035156
0.050781
0.070312
0.089844
0.095703
0.099609
0.050781
-0.009766
-0.054688
-0.070312
-0.074219
-0.074219
-0.074219
-0.058594
-0.029297
0.160160
0.779300
1.353500
0.968750
0.230470
-0.039062
-0.134770
-0.183590
-0.214840
-0.214840
-0.218750
-0.214840
-0.214840
-0.214840
-0.208980
-0.208980
-0.205080
-0.189450
-0.189450
-0.183590
-0.173830
-0.164060
-0.164060
-0.160160
-0.148440
-0.148440
-0.144530
-0.144530
-0.138670
-0.144530
-0.138670
-0.144530
-0.138670
-0.134770
-0.119140
-0.109380
-0.089844
-0.074219
-0.044922
-0.025391
-0.009766
-0.003906
-0.009766
-0.003906
0.000000
-0.003906
-0.003906
-0.003906
-0.009766
0.000000
-0.009766
-0.003906
-0.003906
-0.009766
-0.009766
-0.003906
-0.009766
0.000000
-0.003906
0.000000
-0.003906
0.000000
-0.003906
0.005859
0.041016
0.054688
0.044922
0.035156
0.064453
0.080078
0.089844
0.089844
0.095703
0.015625
-0.035156
-0.070312
-0.074219
-0.074219
-0.074219
-0.074219
-0.048828
0.035156
0.349610
1.084000
1.318400
0.654300
0.070312
-0.089844
-0.160160
-0.193360
-0.214840
-0.218750
-0.214840
-0.218750
-0.214840
-0.214840
-0.205080
-0.199220
-0.205080
-0.189450
-0.189450
-0.179690
-0.183590
-0.169920
-0.173830
-0.164060
-0.164060
-0.154300
-0.154300
-0.148440
-0.154300
-0.148440
-0.154300
-0.154300
-0.144530
-0.144530
-0.128910
-0.119140
-0.093750
-0.070312
-0.044922
-0.025391
-0.013672
0.000000
0.000000
0.000000
0.000000
0.000000
0.000000
-0.003906
-0.003906
-0.009766
-0.009766
-0.013672
-0.019531
-0.019531
-0.025391
-0.019531
-0.019531
-0.019531
-0.013672
-0.003906
-0.003906
0.000000
0.000000
0.025391
0.054688
0.044922
0.035156
0.054688
0.076172
0.089844
0.089844
0.095703
0.035156
-0.019531
-0.058594
-0.074219
-0.074219
-0.074219
-0.074219
-0.054688
-0.013672
0.189450
0.804690
1.314500
0.894530
0.195310
-0.058594
-0.148440
-0.193360
-0.214840
-0.218750
-0.214840
-0.214840
-0.214840
-0.208980
-0.205080
-0.199220
-0.199220
-0.189450
-0.189450
-0.179690
-0.179690
-0.164060
-0.169920
-0.160160
-0.160160
-0.148440
-0.144530
-0.138670
-0.144530
-0.138670
-0.144530
-0.144530
-0.138670
-0.128910
-0.119140
-0.103520
-0.083984
-0.058594
-0.039062
-0.025391
-0.003906
-0.003906
0.000000
0.000000
0.005859
0.000000
0.000000
-0.003906
0.000000
-0.009766
-0.003906
-0.013672
-0.019531
-0.013672
-0.013672
-0.013672
-0.013672
-0.009766
-0.003906
0.000000
0.000000
0.000000
0.005859
0.031250
0.060547
0.054688
0.035156
0.050781
0.070312
0.089844
0.089844
0.095703
0.060547
0.000000
-0.048828
-0.070312
-0.074219
-0.074219
-0.074219
-0.058594
-0.029297
0.125000
0.619140
1.273400
1.000000
0.310550
-0.029297
-0.128910
-0.179690
-0.205080
-0.208980
-0.214840
-0.214840
-0.214840
-0.205080
-0.208980
-0.193360
-0.193360
-0.189450
-0.183590
-0.179690
-0.169920
-0.164060
-0.160160
-0.154300
-0.148440
-0.144530
-0.144530
-0.144530
-0.138670
-0.144530
-0.138670
-0.144530
-0.134770
-0.128910
-0.119140
-0.109380
-0.083984
-0.064453
-0.035156
-0.025391
-0.003906
0.000000
0.005859
0.000000
0.000000
0.000000
0.000000
0.000000
-0.003906
-0.003906
0.000000
-0.019531
-0.013672
-0.009766
-0.003906
-0.003906
-0.003906
0.000000
-0.009766
0.000000
0.000000
0.000000
0.000000
0.005859
0.035156
0.060547
0.050781
0.035156
0.050781
0.085938
0.089844
0.099609
0.089844
0.041016
-0.013672
-0.054688
-0.074219
-0.080078
-0.074219
-0.074219
-0.064453
-0.029297
0.156250
0.779300
1.318400
0.919920
0.201170
-0.058594
-0.134770
-0.179690
-0.199220
-0.214840
-0.205080
-0.214840
-0.208980
-0.205080
-0.189450
-0.189450
-0.183590
-0.173830
-0.173830
-0.164060
-0.154300
-0.144530
-0.148440
-0.144530
-0.134770
-0.125000
-0.128910
-0.119140
-0.119140
-0.115230
-0.119140
-0.109380
-0.119140
-0.093750
-0.083984
-0.074219
-0.058594
-0.035156
-0.013672
-0.009766
0.000000
0.000000
0.000000
-0.003906
0.009766
0.005859
0.019531
0.005859
0.000000
0.000000
-0.003906
-0.003906
0.000000
0.000000
0.000000
0.000000
0.000000
0.000000
0.009766
0.009766
0.015625
0.009766
0.015625
0.044922
0.076172
0.070312
0.044922
0.060547
0.080078
0.095703
0.105470
0.111330
0.054688
-0.009766
-0.058594
-0.074219
-0.074219
-0.080078
-0.074219
-0.064453
-0.044922
0.140620
0.720700
1.334000
0.945310
0.250000
-0.039062
-0.128910
-0.183590
-0.205080
-0.214840
-0.214840
-0.214840
-0.205080
-0.205080
-0.193360
-0.189450
-0.189450
-0.189450
-0.183590
-0.173830
-0.179690
-0.164060
-0.160160
-0.154300
-0.154300
-0.138670
-0.144530
-0.134770
-0.134770
-0.128910
-0.138670
-0.138670
-0.134770
-0.125000
-0.119140
-0.109380
-0.093750
-0.070312
-0.048828
-0.025391
-0.019531
-0.009766
-0.003906
0.000000
-0.003906
-0.009766
0.000000
-0.009766
-0.009766
-0.003906
-0.009766
-0.013672
-0.009766
-0.013672
-0.009766
-0.009766
-0.003906
0.000000
-0.003906
0.000000
0.000000
-0.003906
-0.009766
0.000000
0.000000
0.019531
0.050781
0.044922
0.041016
0.054688
0.076172
0.089844
0.089844
0.099609
0.044922
-0.009766
-0.058594
-0.074219
-0.074219
-0.074219
-0.074219
-0.058594
-0.029297
0.150390
0.724610
1.343800
1.003900
0.269530
-0.025391
-0.128910
-0.183590
-0.205080
-0.214840
-0.214840
-0.208980
-0.208980
-0.208980
-0.208980
-0.199220
-0.199220
-0.189450
-0.189450
-0.173830
-0.173830
-0.164060
-0.164060
-0.164060
-0.160160
-0.148440
-0.144530
-0.144530
-0.144530
-0.144530
-0.148440
-0.148440
-0.144530
-0.134770
-0.125000
-0.115230
-0.093750
-0.074219
-0.044922
-0.025391
0.000000
0.005859
0.009766
0.005859
0.009766
0.005859
0.005859
0.000000
0.000000
-0.003906
-0.003906
-0.009766
-0.009766
-0.013672
-0.009766
-0.003906
-0.009766
0.000000
-0.003906
0.000000
-0.003906
0.000000
0.000000
0.000000
0.025391
0.060547
0.044922
0.035156
0.044922
0.076172
0.089844
0.089844
0.095703
0.050781
-0.013672
-0.054688
-0.074219
-0.074219
-0.080078
-0.074219
-0.074219
-0.044922
0.076172
0.519530
1.234400
1.304700
0.435550
0.005859
-0.115230
-0.179690
-0.205080
-0.218750
-0.214840
-0.218750
-0.214840
-0.214840
-0.208980
-0.208980
-0.199220
-0.193360
-0.189450
-0.183590
-0.179690
-0.173830
-0.164060
-0.169920
-0.160160
-0.154300
-0.148440
-0.144530
-0.148440
-0.144530
-0.148440
-0.144530
-0.144530
-0.138670
-0.138670
-0.119140
-0.109380
-0.089844
-0.058594
-0.035156
-0.025391
-0.003906
-0.003906
-0.003906
0.000000
0.000000
-0.003906
-0.003906
-0.003906
-0.009766
-0.003906
-0.013672
-0.019531
-0.019531
-0.019531
-0.019531
-0.013672
-0.019531
-0.009766
-0.009766
0.000000
0.000000
-0.003906
-0.009766
0.005859
0.041016
0.054688
0.041016
0.031250
0.060547
0.080078
0.085938
0.089844
0.080078
0.019531
-0.029297
-0.058594
-0.074219
-0.074219
-0.074219
-0.074219
-0.058594
-0.013672
0.189450
0.810550
1.308600
0.884770
0.185550
-0.054688
-0.138670
-0.179690
-0.193360
-0.214840
-0.208980
-0.214840
-0.214840
-0.208980
-0.199220
-0.199220
-0.189450
-0.183590
-0.179690
-0.169920
-0.164060
-0.164060
-0.160160
-0.148440
-0.144530
-0.144530
-0.134770
-0.125000
-0.128910
-0.134770
-0.134770
-0.125000
-0.128910
-0.115230
-0.109380
-0.093750
-0.080078
-0.048828
-0.025391
-0.009766
-0.003906
0.000000
0.005859
0.000000
0.009766
0.000000
0.005859
0.000000
0.000000
-0.003906
-0.003906
-0.009766
-0.003906
-0.009766
-0.003906
-0.003906
0.000000
-0.003906
0.005859
0.000000
0.000000
0.005859
0.005859
0.009766
0.050781
0.070312
0.050781
0.044922
0.064453
0.089844
0.099609
0.105470
0.089844
0.035156
-0.025391
-0.064453
-0.074219
-0.074219
-0.080078
-0.074219
-0.054688
-0.025391
0.134770
0.759770
1.339800
0.945310
0.210940
-0.054688
-0.138670
-0.173830
-0.205080
-0.214840
-0.214840
-0.218750
-0.214840
-0.205080
-0.199220
-0.205080
-0.179690
-0.183590
-0.179690
-0.173830
-0.164060
-0.160160
-0.144530
-0.144530
-0.138670
-0.125000
-0.119140
-0.119140
-0.119140
-0.125000
-0.119140
-0.125000
-0.115230
-0.103520
-0.089844
-0.080078
-0.070312
-0.054688
-0.035156
-0.003906
0.000000
0.009766
-0.003906
0.000000
0.005859
0.009766
0.000000
0.000000
-0.009766
0.000000
-0.009766
-0.003906
0.000000
0.000000
-0.013672
-0.003906
0.000000
0.000000
0.009766
0.005859
0.000000
0.000000
0.000000
0.000000
0.035156
0.054688
0.044922
0.035156
0.044922
0.070312
0.089844
0.099609
0.105470
0.054688
-0.003906
-0.054688
-0.064453
-0.074219
-0.074219
-0.074219
-0.058594
-0.039062
0.095703
0.634770
1.314500
1.054700
0.324220
-0.019531
-0.119140
-0.169920
-0.199220
-0.208980
-0.214840
-0.214840
-0.214840
-0.205080
-0.208980
-0.193360
-0.189450
-0.189450
-0.183590
-0.173830
-0.164060
-0.160160
-0.160160
-0.148440
-0.144530
-0.144530
-0.138670
-0.134770
-0.134770
-0.134770
-0.134770
-0.134770
-0.128910
-0.125000
-0.115230
-0.099609
-0.083984
-0.070312
-0.039062
-0.025391
-0.003906
-0.003906
0.000000
-0.003906
0.000000
-0.009766
-0.003906
0.000000
-0.003906
0.000000
-0.003906
-0.003906
-0.003906
-0.003906
-0.003906
-0.003906
-0.009766
0.000000
-0.003906
0.000000
-0.003906
0.000000
0.000000
0.000000
0.000000
0.035156
0.050781
0.044922
0.035156
0.054688
0.076172
0.095703
0.089844
0.095703
0.031250
-0.025391
-0.058594
-0.070312
-0.074219
-0.074219
-0.074219
-0.054688
-0.013672
0.201170
0.820310
1.330100
0.910160
0.195310
-0.054688
-0.144530
-0.183590
-0.208980
-0.214840
-0.214840
-0.214840
-0.214840
-0.205080
-0.205080
-0.199220
-0.193360
-0.189450
-0.183590
-0.183590
-0.173830
-0.164060
-0.160160
-0.154300
-0.144530
-0.144530
-0.138670
-0.144530
-0.134770
-0.138670
-0.138670
-0.144530
-0.138670
-0.138670
-0.125000
-0.119140
-0.093750
-0.074219
-0.044922
-0.025391
-0.009766
0.000000
0.000000
0.005859
0.000000
0.005859
0.000000
0.005859
0.000000
0.005859
-0.003906
-0.009766
-0.013672
-0.003906
-0.003906
-0.003906
-0.009766
-0.003906
-0.009766
-0.003906
-0.009766
0.000000
-0.003906
0.015625
0.050781
0.060547
0.044922
0.035156
0.064453
0.080078
0.089844
0.095703
0.076172
0.015625
-0.039062
-0.064453
-0.074219
-0.074219
-0.074219
-0.074219
-0.054688
0.009766
0.291020
1.003900
1.289100
0.720700
0.099609
-0.080078
-0.154300
-0.193360
-0.208980
-0.218750
-0.214840
-0.218750
-0.214840
-0.214840
-0.205080
-0.193360
-0.199220
-0.193360
-0.189450
-0.173830
-0.179690
-0.164060
-0.164060
-0.154300
-0.144530
-0.144530
-0.144530
-0.144530
-0.144530
-0.138670
-0.144530
-0.138670
-0.138670
-0.125000
-0.115230
-0.099609
-0.083984
-0.054688
-0.035156
-0.013672
-0.003906
0.000000
0.005859
0.000000
0.005859
0.000000
0.005859
-0.003906
-0.003906
-0.009766
-0.009766
-0.013672
-0.003906
-0.013672
-0.009766
-0.013672
-0.003906
-0.003906
0.000000
0.005859
0.000000
0.000000
0.000000
0.025391
0.060547
0.050781
0.041016
0.044922
0.076172
0.089844
0.089844
0.095703
0.060547
0.000000
-0.048828
-0.058594
-0.074219
-0.074219
-0.083984
-0.074219
-0.044922
0.064453
0.474610
1.205100
1.294900
0.455080
0.000000
-0.109380
-0.179690
-0.199220
-0.208980
-0.214840
-0.214840
-0.214840
-0.205080
-0.199220
-0.193360
-0.189450
-0.183590
-0.183590
-0.173830
-0.173830
-0.164060
-0.164060
-0.148440
-0.144530
-0.144530
-0.138670
-0.138670
-0.138670
-0.144530
-0.138670
-0.144530
-0.134770
-0.125000
-0.119140
-0.103520
-0.093750
-0.074219
-0.048828
-0.029297
-0.009766
-0.003906
0.000000
0.000000
0.000000
0.000000
0.000000
0.000000
0.000000
-0.003906
-0.003906
-0.013672
-0.009766
-0.013672
-0.013672
-0.009766
-0.003906
-0.009766
0.000000
0.000000
0.000000
0.005859
0.000000
0.000000
0.019531
0.060547
0.050781
0.041016
0.035156
0.070312
0.085938
0.099609
0.099609
0.076172
0.005859
-0.039062
-0.074219
-0.074219
-0.080078
-0.074219
-0.074219
-0.054688
0.005859
0.339840
1.093800
1.314500
0.605470
0.031250
-0.099609
-0.164060
-0.193360
-0.214840
-0.214840
-0.214840
-0.208980
-0.208980
-0.199220
-0.193360
-0.189450
-0.189450
-0.183590
-0.173830
-0.164060
-0.164060
-0.160160
-0.148440
-0.144530
-0.144530
-0.138670
-0.128910
-0.125000
-0.119140
-0.125000
-0.119140
-0.119140
-0.103520
-0.099609
-0.083984
-0.070312
-0.048828
-0.025391
-0.013672
-0.009766
0.000000
0.000000
0.000000
-0.003906
0.000000
-0.003906
-0.003906
-0.009766
-0.003906
0.000000
-0.003906
0.000000
-0.003906
0.000000
-0.009766
-0.003906
-0.013672
-0.009766
-0.003906
0.005859
0.000000
0.005859
-0.003906
0.019531
0.054688
0.064453
0.050781
0.044922
0.070312
0.095703
0.105470
0.115230
0.085938
0.025391
-0.025391
-0.064453
-0.074219
-0.083984
-0.080078
-0.080078
-0.058594
-0.013672
0.300780
1.058600
1.324200
0.669920
0.076172
-0.089844
-0.160160
-0.199220
-0.214840
-0.218750
-0.214840
-0.214840
-0.205080
-0.199220
-0.189450
-0.189450
-0.183590
-0.179690
-0.173830
-0.169920
-0.164060
-0.160160
-0.164060
-0.148440
-0.144530
-0.138670
-0.134770
-0.128910
-0.134770
-0.128910
-0.138670
-0.134770
-0.128910
-0.119140
-0.119140
-0.103520
-0.083984
-0.058594
-0.039062
-0.025391
-0.013672
-0.003906
-0.009766
-0.003906
0.000000
-0.009766
-0.003906
-0.013672
-0.009766
-0.009766
-0.013672
-0.013672
-0.009766
-0.013672
-0.009766
-0.013672
-0.003906
-0.009766
-0.003906
0.000000
0.000000
-0.009766
-0.003906
-0.009766
0.009766
0.044922
0.044922
0.035156
0.031250
0.070312
0.085938
0.089844
0.085938
0.089844
0.000000
-0.048828
-0.074219
-0.074219
-0.074219
-0.074219
-0.074219
-0.039062
0.080078
0.515620
1.250000
1.330100
0.455080
0.015625
-0.119140
-0.179690
-0.208980
-0.214840
-0.218750
-0.214840
-0.214840
-0.214840
-0.205080
-0.208980
-0.193360
-0.189450
-0.183590
-0.179690
-0.164060
-0.169920
-0.164060
-0.160160
-0.144530
-0.144530
-0.144530
-0.144530
-0.138670
-0.144530
-0.138670
-0.144530
-0.144530
-0.138670
-0.128910
-0.119140
-0.099609
-0.080078
-0.054688
-0.029297
-0.013672
-0.003906
0.000000
0.005859
0.000000
0.005859
0.009766
0.005859
0.000000
0.000000
-0.003906
0.000000
-0.009766
-0.003906
-0.013672
-0.003906
-0.013672
-0.009766
-0.009766
0.000000
0.000000
0.000000
-0.003906
0.000000
0.041016
0.064453
0.050781
0.041016
0.064453
0.076172
0.089844
0.089844
0.095703
0.031250
-0.025391
-0.064453
-0.070312
-0.074219
-0.074219
-0.080078
-0.054688
-0.009766
0.205080
0.833980
1.318400
0.878910
0.185550
-0.054688
-0.138670
-0.183590
-0.205080
-0.214840
-0.218750
-0.214840
-0.214840
-0.205080
-0.205080
-0.193360
-0.193360
-0.189450
-0.183590
-0.173830
-0.169920
-0.164060
-0.164060
-0.154300
-0.148440
-0.144530
-0.138670
-0.144530
-0.134770
-0.144530
-0.138670
-0.144530
-0.138670
-0.134770
-0.125000
-0.115230
-0.093750
-0.070312
-0.039062
-0.025391
-0.003906
0.000000
0.005859
0.000000
0.009766
0.005859
0.005859
0.000000
0.000000
0.000000
-0.003906
-0.009766
-0.009766
-0.019531
-0.009766
-0.013672
-0.019531
-0.013672
-0.009766
0.000000
-0.003906
0.000000
0.000000
0.009766
0.035156
0.064453
0.050781
0.035156
0.044922
0.076172
0.085938
0.089844
0.095703
0.041016
-0.013672
-0.054688
-0.074219
-0.074219
-0.074219
-0.080078
-0.058594
-0.013672
0.156250
0.740230
1.314500
0.945310
0.224610
-0.044922
-0.134770
-0.183590
-0.205080
-0.214840
-0.214840
-0.218750
-0.214840
-0.214840
-0.199220
-0.205080
-0.189450
-0.189450
-0.183590
-0.179690
-0.164060
-0.164060
-0.164060
-0.160160
-0.154300
-0.148440
-0.144530
-0.138670
-0.134770
-0.128910
-0.134770
-0.128910
-0.134770
-0.119140
-0.115230
-0.093750
-0.080078
-0.054688
-0.039062
-0.019531
-0.009766
0.000000
0.000000
-0.003906
0.000000
0.005859
0.000000
-0.003906
-0.009766
-0.009766
-0.019531
-0.009766
-0.013672
-0.019531
-0.019531
-0.019531
-0.009766
-0.013672
0.000000
-0.009766
0.000000
0.000000
0.000000
0.000000
0.035156
0.064453
0.054688
0.035156
0.050781
0.070312
0.089844
0.095703
0.099609
0.054688
-0.009766
-0.054688
-0.074219
-0.083984
-0.080078
-0.083984
-0.080078
-0.048828
0.085938
0.664060
1.314500
1.019500
0.275390
-0.044922
-0.138670
-0.183590
-0.208980
-0.218750
-0.228520
-0.214840
-0.214840
-0.208980
-0.205080
-0.214840
-0.199220
-0.193360
-0.183590
-0.169920
-0.164060
-0.164060
-0.154300
-0.148440
-0.134770
-0.138670
-0.125000
-0.128910
-0.119140
-0.119140
-0.119140
-0.119140
-0.109380
-0.115230
-0.099609
-0.093750
-0.074219
-0.064453
-0.035156
-0.019531
-0.009766
0.000000
-0.009766
-0.003906
0.000000
0.000000
0.000000
-0.003906
-0.009766
-0.003906
-0.009766
-0.013672
-0.019531
-0.009766
-0.013672
-0.009766
-0.013672
-0.003906
-0.003906
0.000000
0.000000
0.000000
-0.003906
0.009766
0.041016
0.054688
0.044922
0.041016
0.064453
0.085938
0.099609
0.105470
0.089844
0.025391
-0.029297
-0.070312
-0.074219
-0.080078
-0.074219
-0.080078
-0.054688
-0.013672
0.294920
1.048800
1.324200
0.724610
0.089844
-0.083984
-0.160160
-0.199220
-0.214840
-0.228520
-0.224610
-0.224610
-0.218750
-0.214840
-0.214840
-0.205080
-0.205080
-0.193360
-0.189450
-0.183590
-0.179690
-0.164060
-0.164060
-0.154300
-0.154300
-0.144530
-0.144530
-0.138670
-0.144530
-0.144530
-0.144530
-0.144530
-0.134770
-0.125000
-0.119140
-0.103520
-0.089844
-0.064453
-0.039062
-0.025391
-0.013672
-0.003906
0.000000
0.000000
0.000000
0.000000
0.000000
-0.003906
0.000000
-0.009766
0.000000
-0.013672
-0.003906
-0.009766
-0.003906
-0.013672
0.000000
-0.009766
-0.003906
-0.003906
-0.003906
0.000000
-0.003906
0.005859
0.031250
0.050781
0.041016
0.035156
0.060547
0.076172
0.085938
0.089844
0.076172
0.015625
-0.044922
-0.070312
-0.083984
-0.080078
-0.083984
-0.074219
-0.054688
0.019531
0.324220
1.039100
1.308600
0.679690
0.080078
-0.083984
-0.160160
-0.199220
-0.214840
-0.218750
-0.214840
-0.218750
-0.214840
-0.214840
-0.205080
-0.205080
-0.193360
-0.193360
-0.189450
-0.183590
-0.179690
-0.173830
-0.164060
-0.164060
-0.160160
-0.164060
-0.154300
-0.148440
-0.148440
-0.148440
-0.148440
-0.148440
-0.154300
-0.144530
-0.134770
-0.119140
-0.099609
-0.070312
-0.039062
-0.025391
-0.009766
0.005859
0.000000
0.005859
0.000000
0.005859
0.000000
0.000000
0.000000
0.000000
-0.003906
-0.003906
-0.009766
-0.009766
-0.019531
-0.025391
-0.013672
-0.013672
-0.009766
-0.013672
0.000000
-0.003906
0.015625
0.050781
0.064453
0.044922
0.044922
0.070312
0.089844
0.095703
0.089844
0.070312
0.009766
-0.039062
-0.070312
-0.074219
-0.074219
-0.080078
-0.074219
-0.048828
0.025391
0.359380
1.103500
1.324200
0.625000
0.054688
-0.089844
-0.164060
-0.199220
-0.214840
-0.218750
-0.214840
-0.214840
-0.208980
-0.214840
-0.205080
-0.208980
-0.205080
-0.193360
-0.189450
-0.183590
-0.173830
-0.169920
-0.164060
-0.160160
-0.164060
-0.144530
-0.144530
-0.144530
-0.138670
-0.134770
-0.144530
-0.144530
-0.138670
-0.128910
-0.119140
-0.103520
-0.083984
-0.054688
-0.029297
-0.013672
-0.003906
0.000000
0.005859
0.000000
0.000000
0.000000
0.000000
0.000000
-0.003906
-0.009766
-0.003906
-0.009766
-0.003906
-0.013672
-0.009766
-0.009766
-0.003906
-0.003906
0.000000
-0.003906
-0.003906
-0.009766
0.000000
0.015625
0.050781
0.054688
0.044922
0.035156
0.064453
0.080078
0.085938
0.089844
0.076172
0.009766
-0.044922
-0.074219
-0.080078
-0.074219
-0.083984
-0.074219
-0.054688
0.019531
0.359380
1.093800
1.298800
0.583980
0.031250
-0.103520
-0.173830
-0.199220
-0.224610
-0.218750
-0.218750
-0.214840
-0.214840
-0.208980
-0.205080
-0.199220
-0.193360
-0.189450
-0.179690
-0.173830
-0.169920
-0.164060
-0.160160
-0.154300
-0.144530
-0.144530
-0.144530
-0.144530
-0.138670
-0.148440
-0.144530
-0.144530
-0.138670
-0.125000
-0.119140
-0.103520
-0.080078
-0.054688
-0.035156
-0.025391
-0.009766
-0.003906
0.000000
0.000000
0.000000
0.000000
0.000000
-0.003906
-0.009766
-0.003906
-0.009766
-0.019531
-0.025391
-0.019531
-0.019531
-0.013672
-0.025391
-0.019531
-0.013672
-0.009766
-0.003906
0.000000
0.000000
0.035156
0.050781
0.050781
0.031250
0.050781
0.080078
0.089844
0.089844
0.089844
0.041016
-0.019531
-0.064453
-0.080078
-0.074219
-0.083984
-0.080078
-0.064453
-0.029297
0.140620
0.779300
1.314500
0.919920
0.189450
-0.064453
-0.148440
-0.189450
-0.218750
-0.224610
-0.218750
-0.214840
-0.214840
-0.208980
-0.208980
-0.193360
-0.189450
-0.189450
-0.183590
-0.173830
-0.164060
-0.160160
-0.154300
-0.160160
-0.144530
-0.138670
-0.138670
-0.134770
-0.125000
-0.125000
-0.125000
-0.128910
-0.119140
-0.115230
-0.103520
-0.093750
-0.080078
-0.048828
-0.025391
-0.019531
-0.009766
0.000000
-0.003906
0.000000
-0.003906
-0.003906
-0.009766
-0.003906
-0.019531
-0.009766
-0.019531
-0.025391
-0.013672
-0.009766
-0.013672
-0.009766
-0.013672
-0.003906
0.000000
0.000000
0.000000
0.000000
-0.003906
-0.009766
0.015625
0.050781
0.044922
0.041016
0.050781
0.085938
0.095703
0.099609
0.099609
0.070312
0.005859
-0.054688
-0.074219
-0.080078
-0.074219
-0.080078
-0.070312
-0.048828
0.089844
0.619140
1.298800
1.029300
0.320310
-0.029297
-0.128910
-0.179690
-0.208980
-0.218750
-0.224610
-0.214840
-0.214840
-0.208980
-0.205080
-0.193360
-0.193360
-0.189450
-0.189450
-0.169920
-0.169920
-0.164060
-0.160160
-0.154300
-0.148440
-0.144530
-0.144530
-0.138670
-0.144530
-0.138670
-0.134770
-0.144530
-0.134770
-0.138670
-0.119140
-0.109380
-0.093750
-0.080078
-0.048828
-0.029297
-0.013672
-0.009766
0.000000
-0.003906
0.000000
0.000000
0.000000
-0.003906
0.000000
-0.009766
0.000000
0.000000
-0.003906
-0.009766
-0.003906
-0.009766
-0.003906
-0.003906
-0.009766
-0.003906
-0.003906
-0.003906
-0.003906
0.000000
0.025391
0.054688
0.044922
0.035156
0.044922
0.076172
0.085938
0.089844
0.089844
0.044922
-0.019531
-0.054688
-0.074219
-0.074219
-0.080078
-0.074219
-0.058594
-0.013672
0.195310
0.798830
1.343800
0.935550
0.224610
-0.048828
-0.144530
-0.189450
-0.214840
-0.218750
-0.218750
-0.218750
-0.214840
-0.214840
-0.208980
-0.205080
-0.193360
-0.193360
-0.189450
-0.183590
-0.173830
-0.169920
-0.164060
-0.160160
-0.154300
-0.144530
-0.148440
-0.144530
-0.148440
-0.144530
-0.148440
-0.144530
-0.144530
-0.134770
-0.134770
-0.119140
-0.099609
-0.074219
-0.048828
-0.025391
-0.019531
0.000000
0.000000
0.005859
0.000000
0.000000
0.000000
0.000000
0.000000
0.000000
-0.003906
-0.009766
-0.009766
-0.013672
-0.013672
-0.013672
-0.009766
-0.013672
-0.003906
-0.003906
0.000000
0.000000
0.000000
0.000000
0.000000
0.019531
0.054688
0.044922
0.035156
0.044922
0.070312
0.080078
0.089844
0.095703
0.044922
-0.019531
-0.058594
-0.074219
-0.080078
-0.074219
-0.074219
-0.054688
-0.013672
0.195310
0.833980
1.324200
0.875000
0.169920
-0.054688
-0.148440
-0.193360
-0.208980
-0.218750
-0.224610
-0.218750
-0.214840
-0.214840
-0.205080
-0.199220
-0.193360
-0.193360
-0.189450
-0.173830
-0.173830
-0.164060
-0.164060
-0.154300
-0.148440
-0.144530
-0.144530
-0.144530
-0.144530
-0.138670
-0.144530
-0.144530
-0.144530
-0.134770
-0.125000
-0.109380
-0.099609
-0.074219
-0.048828
-0.025391
-0.013672
0.000000
0.005859
0.000000
0.005859
0.005859
0.000000
0.000000
0.000000
0.000000
-0.009766
-0.013672
-0.019531
-0.019531
-0.013672
-0.019531
-0.009766
-0.013672
-0.003906
-0.003906
0.000000
0.000000
0.000000
0.000000
0.015625
0.050781
0.060547
0.044922
0.035156
0.064453
0.080078
0.089844
0.089844
0.076172
0.009766
-0.035156
-0.070312
-0.074219
-0.080078
-0.070312
-0.070312
-0.039062
0.054688
0.449220
1.164100
1.308600
0.509770
0.031250
-0.103520
-0.164060
-0.193360
-0.208980
-0.218750
-0.214840
-0.218750
-0.214840
-0.205080
-0.205080
-0.189450
-0.189450
-0.189450
-0.183590
-0.173830
-0.169920
-0.160160
-0.160160
-0.154300
-0.148440
-0.144530
-0.144530
-0.138670
-0.134770
-0.134770
-0.138670
-0.134770
-0.125000
-0.119140
-0.109380
-0.093750
-0.074219
-0.048828
-0.025391
-0.009766
0.000000
0.000000
0.005859
0.005859
0.005859
0.000000
0.000000
0.000000
-0.003906
-0.013672
-0.013672
-0.025391
-0.025391
-0.025391
-0.025391
-0.019531
-0.013672
-0.013672
-0.003906
0.000000
0.000000
0.000000
0.000000
0.009766
0.044922
0.060547
0.044922
0.041016
0.060547
0.085938
0.095703
0.105470
0.085938
0.031250
-0.029297
-0.064453
-0.074219
-0.083984
-0.080078
-0.074219
-0.064453
-0.003906
0.279300
1.003900
1.279300
0.685550
0.070312
-0.089844
-0.160160
-0.193360
-0.214840
-0.218750
-0.214840
-0.218750
-0.214840
-0.205080
-0.199220
-0.193360
-0.183590
-0.183590
-0.173830
-0.164060
-0.164060
-0.160160
-0.154300
-0.144530
-0.138670
-0.134770
-0.128910
-0.125000
-0.134770
-0.125000
-0.128910
-0.125000
-0.109380
-0.099609
-0.109380
-0.089844
-0.074219
-0.048828
-0.035156
-0.013672
-0.003906
0.000000
0.000000
0.005859
0.000000
0.000000
-0.009766
-0.009766
-0.013672
-0.013672
-0.025391
-0.025391
-0.025391
-0.025391
-0.019531
-0.019531
-0.013672
-0.009766
0.000000
-0.003906
0.000000
0.000000
0.000000
-0.003906
0.031250
0.044922
0.044922
0.035156
0.054688
0.080078
0.099609
0.105470
0.095703
0.054688
-0.003906
-0.054688
-0.074219
-0.074219
-0.080078
-0.080078
-0.064453
-0.035156
0.115230
0.730470
1.349600
0.990230
0.250000
-0.039062
-0.128910
-0.173830
-0.205080
-0.214840
-0.214840
-0.208980
-0.214840
-0.208980
-0.199220
-0.189450
-0.183590
-0.189450
-0.183590
-0.173830
-0.164060
-0.164060
-0.160160
-0.148440
-0.144530
-0.138670
-0.134770
-0.128910
-0.125000
-0.128910
-0.125000
-0.128910
-0.119140
-0.119140
-0.099609
-0.093750
-0.080078
-0.064453
-0.035156
-0.025391
-0.003906
-0.009766
-0.003906
-0.003906
-0.009766
-0.003906
-0.009766
-0.003906
-0.013672
-0.013672
-0.019531
-0.013672
-0.019531
-0.013672
-0.019531
-0.009766
-0.009766
0.000000
-0.003906
0.000000
0.000000
0.005859
0.000000
0.000000
0.000000
0.019531
0.054688
0.050781
0.041016
0.035156
0.070312
0.085938
0.089844
0.095703
0.054688
-0.009766
-0.054688
-0.074219
-0.080078
-0.083984
-0.074219
-0.070312
-0.035156
0.140620
0.699220
1.334000
1.013700
0.294920
-0.025391
-0.134770
-0.183590
-0.214840
-0.218750
-0.224610
-0.228520
-0.218750
-0.214840
-0.214840
-0.205080
-0.199220
-0.189450
-0.189450
-0.189450
-0.173830
-0.169920
-0.160160
-0.154300
-0.148440
-0.148440
-0.144530
-0.144530
-0.138670
-0.138670
-0.138670
-0.144530
-0.138670
-0.138670
-0.125000
-0.119140
-0.099609
-0.080078
-0.048828
-0.029297
-0.013672
-0.003906
0.000000
0.005859
0.000000
0.005859
0.000000
0.000000
-0.009766
-0.003906
-0.003906
-0.003906
-0.013672
-0.013672
-0.013672
-0.009766
-0.003906
-0.009766
-0.003906
-0.003906
-0.003906
0.000000
-0.003906
-0.003906
0.000000
0.041016
0.054688
0.041016
0.031250
0.054688
0.070312
0.085938
0.089844
0.076172
0.015625
-0.044922
-0.074219
-0.083984
-0.080078
-0.083984
-0.074219
-0.054688
0.035156
0.371090
1.125000
1.330100
0.615230
0.050781
-0.093750
-0.173830
-0.199220
-0.214840
-0.224610
-0.218750
-0.214840
-0.214840
-0.214840
-0.208980
-0.205080
-0.193360
-0.193360
-0.189450
-0.189450
-0.173830
-0.173830
-0.164060
-0.164060
-0.154300
-0.154300
-0.148440
-0.148440
-0.144530
-0.144530
-0.144530
-0.144530
-0.144530
-0.134770
-0.125000
-0.109380
-0.089844
-0.064453
-0.039062
-0.019531
-0.009766
0.000000
0.000000
0.000000
0.000000
0.005859
0.000000
0.005859
-0.003906
-0.003906
-0.009766
-0.003906
-0.013672
-0.003906
-0.009766
-0.003906
-0.013672
-0.009766
-0.003906
0.000000
0.000000
0.000000
0.005859
0.009766
0.041016
0.070312
0.064453
0.050781
0.064453
0.085938
0.095703
0.089844
0.099609
0.044922
-0.013672
-0.054688
-0.064453
-0.070312
-0.064453
-0.064453
-0.054688
-0.009766
0.205080
0.843750
1.318400
0.869140
0.175780
-0.048828
-0.138670
-0.183590
-0.208980
-0.208980
-0.214840
-0.214840
-0.214840
-0.205080
-0.208980
-0.199220
-0.199220
-0.189450
-0.179690
-0.169920
-0.164060
-0.164060
-0.154300
-0.148440
-0.148440
-0.144530
-0.144530
-0.144530
-0.138670
-0.144530
-0.138670
-0.144530
-0.134770
-0.128910
-0.119140
-0.115230
-0.089844
-0.064453
-0.039062
-0.025391
-0.009766
-0.003906
0.005859
0.000000
0.005859
0.000000
0.000000
-0.003906
-0.003906
-0.013672
-0.009766
-0.003906
-0.013672
-0.009766
-0.013672
-0.009766
-0.013672
-0.003906
-0.009766
0.000000
0.000000
0.005859
0.000000
0.000000
0.005859
0.044922
0.060547
0.050781
0.041016
0.064453
0.089844
0.099609
0.095703
0.099609
0.041016
-0.009766
-0.048828
-0.070312
-0.074219
-0.074219
-0.064453
-0.044922
0.015625
0.275390
0.984380
1.273400
0.724610
0.099609
-0.070312
-0.154300
-0.189450
-0.208980
-0.208980
-0.214840
-0.208980
-0.205080
-0.199220
-0.193360
-0.189450
-0.189450
-0.179690
-0.173830
-0.169920
-0.164060
-0.160160
-0.148440
-0.144530
-0.138670
-0.138670
-0.128910
-0.134770
-0.125000
-0.128910
-0.125000
-0.128910
-0.119140
-0.119140
-0.093750
-0.083984
-0.064453
-0.048828
-0.025391
-0.013672
-0.003906
0.005859
0.005859
0.005859
0.005859
0.000000
0.000000
-0.003906
-0.009766
-0.009766
-0.019531
-0.013672
-0.019531
-0.013672
-0.019531
-0.009766
-0.013672
0.000000
0.000000
0.000000
0.005859
0.009766
0.005859
0.005859
0.041016
0.064453
0.050781
0.041016
0.060547
0.080078
0.095703
0.099609
0.111330
0.050781
-0.009766
-0.058594
-0.064453
-0.070312
-0.074219
-0.080078
-0.064453
-0.025391
0.220700
0.935550
1.330100
0.804690
0.115230
-0.083984
-0.154300
-0.189450
-0.214840
-0.218750
-0.214840
-0.208980
-0.208980
-0.214840
-0.208980
-0.189450
-0.189450
-0.173830
-0.179690
-0.169920
-0.164060
-0.148440
-0.148440
-0.144530
-0.144530
-0.128910
-0.125000
-0.119140
-0.119140
-0.119140
-0.125000
-0.119140
-0.109380
-0.099609
-0.089844
-0.083984
-0.064453
-0.039062
-0.029297
-0.019531
-0.003906
0.000000
0.000000
0.000000
0.000000
-0.009766
-0.003906
-0.003906
-0.003906
-0.013672
-0.013672
-0.025391
-0.019531
-0.013672
-0.009766
-0.003906
-0.009766
0.000000
-0.003906
0.000000
-0.003906
0.000000
0.005859
0.005859
0.031250
0.064453
0.054688
0.044922
0.041016
0.085938
0.095703
0.105470
0.105470
0.076172
0.005859
-0.039062
-0.064453
-0.070312
-0.070312
-0.070312
-0.054688
-0.025391
0.160160
0.810550
1.369100
0.968750
0.224610
-0.039062
-0.138670
-0.189450
-0.208980
-0.218750
-0.214840
-0.214840
-0.214840
-0.214840
-0.205080
-0.208980
-0.193360
-0.189450
-0.179690
-0.179690
-0.169920
-0.164060
-0.160160
-0.154300
-0.144530
-0.144530
-0.128910
-0.125000
-0.134770
-0.128910
-0.134770
-0.134770
-0.138670
-0.119140
-0.115230
-0.099609
-0.083984
-0.064453
-0.039062
-0.013672
0.000000
0.000000
0.000000
0.000000
0.005859
0.005859
0.000000
0.000000
0.000000
0.000000
-0.003906
-0.003906
0.000000
-0.003906
-0.009766
-0.003906
0.000000
0.000000
0.000000
0.000000
0.000000
0.005859
0.000000
0.000000
0.015625
0.044922
0.054688
0.044922
0.044922
0.064453
0.085938
0.089844
0.095703
0.076172
0.015625
-0.039062
-0.064453
-0.074219
-0.074219
-0.070312
-0.074219
-0.029297
0.105470
0.589840
1.279300
1.324200
0.390620
0.005859
-0.119140
-0.173830
-0.208980
-0.214840
-0.218750
-0.214840
-0.218750
-0.214840
-0.214840
-0.205080
-0.199220
-0.193360
-0.189450
-0.179690
-0.179690
-0.169920
-0.164060
-0.164060
-0.154300
-0.160160
-0.148440
-0.144530
-0.144530
-0.144530
-0.144530
-0.148440
-0.144530
-0.144530
-0.128910
-0.125000
-0.103520
-0.089844
-0.064453
-0.039062
-0.019531
-0.003906
-0.003906
0.000000
0.005859
0.005859
0.005859
0.000000
0.000000
0.000000
-0.003906
-0.009766
-0.013672
-0.009766
-0.019531
-0.013672
-0.019531
-0.009766
-0.013672
0.000000
-0.003906
0.000000
0.000000
0.005859
0.015625
0.054688
0.050781
0.044922
0.035156
0.070312
0.085938
0.089844
0.089844
0.064453
0.000000
-0.048828
-0.074219
-0.080078
-0.074219
-0.080078
-0.070312
-0.035156
0.125000
0.640620
1.304700
1.013700
0.320310
-0.019531
-0.128910
-0.183590
-0.205080
-0.214840
-0.214840
-0.214840
-0.214840
-0.208980
-0.205080
-0.199220
-0.205080
-0.189450
-0.189450
-0.179690
-0.183590
-0.169920
-0.169920
-0.154300
-0.148440
-0.144530
-0.144530
-0.144530
-0.144530
-0.144530
-0.144530
-0.144530
-0.138670
-0.125000
-0.119140
-0.103520
-0.093750
-0.074219
-0.054688
-0.029297
-0.013672
-0.003906
0.000000
0.000000
0.000000
0.000000
0.000000
0.000000
-0.003906
-0.013672
-0.009766
-0.019531
-0.013672
-0.019531
-0.019531
-0.025391
-0.013672
-0.013672
-0.003906
-0.003906
-0.003906
0.000000
0.000000
0.000000
0.015625
0.050781
0.060547
0.041016
0.025391
0.064453
0.085938
0.089844
0.089844
0.076172
0.015625
-0.029297
-0.070312
-0.074219
-0.074219
-0.074219
-0.074219
-0.044922
0.060547
0.455080
1.189500
1.298800
0.484380
0.015625
-0.109380
-0.173830
-0.205080
-0.214840
-0.214840
-0.214840
-0.214840
-0.208980
-0.205080
-0.208980
-0.189450
-0.189450
-0.183590
-0.189450
-0.179690
-0.173830
-0.164060
-0.164060
-0.148440
-0.144530
-0.138670
-0.144530
-0.138670
-0.144530
-0.144530
-0.144530
-0.144530
-0.134770
-0.125000
-0.115230
-0.099609
-0.080078
-0.054688
-0.035156
-0.025391
-0.003906
-0.003906
0.000000
-0.003906
0.000000
-0.003906
0.000000
-0.003906
0.000000
-0.009766
-0.009766
-0.009766
-0.013672
-0.019531
-0.013672
-0.009766
-0.009766
-0.003906
-0.003906
-0.003906
-0.003906
-0.003906
-0.003906
0.000000
0.035156
0.060547
0.044922
0.041016
0.044922
0.070312
0.089844
0.095703
0.099609
0.054688
-0.009766
-0.048828
-0.074219
-0.074219
-0.074219
-0.074219
-0.054688
-0.025391
0.195310
0.894530
1.330100
0.839840
0.130860
-0.074219
-0.148440
-0.189450
-0.208980
-0.214840
-0.214840
-0.214840
-0.208980
-0.205080
-0.193360
-0.199220
-0.189450
-0.189450
-0.169920
-0.164060
-0.160160
-0.160160
-0.154300
-0.148440
-0.138670
-0.134770
-0.134770
-0.128910
-0.128910
-0.125000
-0.119140
-0.119140
-0.115230
-0.093750
-0.089844
-0.083984
-0.070312
-0.035156
-0.013672
-0.009766
-0.003906
0.000000
0.000000
0.000000
0.000000
0.009766
0.000000
0.000000
-0.003906
0.000000
0.000000
0.000000
0.000000
-0.003906
-0.003906
0.000000
0.005859
0.000000
0.000000
0.000000
0.005859
0.000000
0.009766
0.005859
0.031250
0.054688
0.054688
0.041016
0.035156
0.070312
0.085938
0.089844
0.095703
0.060547
0.000000
-0.048828
-0.074219
-0.080078
-0.083984
-0.074219
-0.064453
-0.039062
0.130860
0.740230
1.339800
0.958980
0.246090
-0.039062
-0.134770
-0.173830
-0.208980
-0.208980
-0.214840
-0.214840
-0.214840
-0.205080
-0.205080
-0.189450
-0.189450
-0.179690
-0.173830
-0.179690
-0.164060
-0.164060
-0.160160
-0.148440
-0.144530
-0.144530
-0.138670
-0.138670
-0.128910
-0.138670
-0.134770
-0.138670
-0.125000
-0.128910
-0.119140
-0.115230
-0.089844
-0.074219
-0.054688
-0.035156
-0.019531
-0.009766
-0.013672
-0.003906
-0.009766
0.000000
0.000000
-0.003906
-0.009766
-0.003906
-0.009766
-0.003906
-0.013672
-0.009766
-0.013672
-0.009766
-0.019531
-0.009766
-0.003906
0.000000
-0.003906
-0.003906
0.000000
0.000000
0.009766
0.050781
0.054688
0.044922
0.035156
0.070312
0.089844
0.089844
0.095703
0.076172
0.009766
-0.039062
-0.070312
-0.074219
-0.070312
-0.074219
-0.064453
-0.035156
0.125000
0.628910
1.314500
1.054700
0.355470
-0.013672
-0.119140
-0.179690
-0.205080
-0.214840
-0.214840
-0.214840
-0.214840
-0.214840
-0.205080
-0.199220
-0.193360
-0.189450
-0.189450
-0.179690
-0.173830
-0.164060
-0.164060
-0.154300
-0.154300
-0.148440
-0.154300
-0.144530
-0.144530
-0.138670
-0.144530
-0.144530
-0.144530
-0.134770
-0.128910
-0.119140
-0.099609
-0.074219
-0.048828
-0.029297
-0.009766
0.000000
0.005859
0.005859
0.009766
0.005859
0.009766
0.000000
0.005859
0.000000
0.000000
-0.003906
-0.009766
-0.009766
-0.009766
-0.009766
-0.009766
-0.003906
0.000000
0.000000
0.005859
0.000000
0.000000
0.005859
0.000000
0.015625
0.054688
0.070312
0.044922
0.044922
0.070312
0.089844
0.095703
0.099609
0.076172
0.015625
-0.039062
-0.064453
-0.070312
-0.070312
-0.074219
-0.058594
-0.035156
0.115230
0.628910
1.298800
1.070300
0.339840
-0.009766
-0.119140
-0.179690
-0.205080
-0.214840
-0.218750
-0.214840
-0.214840
-0.208980
-0.205080
-0.199220
-0.193360
-0.189450
-0.189450
-0.179690
-0.179690
-0.173830
-0.164060
-0.154300
-0.154300
-0.144530
-0.144530
-0.144530
-0.144530
-0.144530
-0.144530
-0.144530
-0.144530
-0.138670
-0.138670
-0.119140
-0.103520
-0.080078
-0.054688
-0.035156
-0.013672
-0.003906
0.000000
-0.003906
0.000000
-0.003906
0.000000
-0.009766
-0.003906
-0.003906
-0.003906
-0.009766
-0.003906
-0.013672
-0.009766
-0.009766
-0.009766
-0.003906
0.000000
-0.003906
0.000000
0.000000
0.000000
0.005859
0.000000
0.050781
0.060547
0.050781
0.031250
0.064453
0.080078
0.089844
0.089844
0.095703
0.025391
-0.025391
-0.058594
-0.074219
-0.074219
-0.074219
-0.070312
-0.044922
0.041016
0.394530
1.109400
1.308600
0.580080
0.050781
-0.089844
-0.164060
-0.193360
-0.214840
-0.214840
-0.214840
-0.208980
-0.214840
-0.208980
-0.205080
-0.193360
-0.199220
-0.189450
-0.183590
-0.173830
-0.169920
-0.164060
-0.160160
-0.148440
-0.148440
-0.144530
-0.134770
-0.134770
-0.128910
-0.138670
-0.134770
-0.138670
-0.125000
-0.119140
-0.109380
-0.099609
-0.074219
-0.054688
-0.035156
-0.025391
-0.009766
-0.003906
0.000000
0.000000
0.000000
-0.003906
-0.003906
-0.003906
0.000000
-0.013672
-0.019531
-0.025391
-0.019531
-0.013672
-0.025391
-0.019531
-0.025391
-0.019531
-0.019531
-0.003906
0.000000
0.005859
0.000000
0.000000
0.031250
0.054688
0.044922
0.031250
0.041016
0.070312
0.085938
0.095703
0.089844
0.050781
-0.009766
-0.058594
-0.083984
-0.074219
-0.080078
-0.083984
-0.064453
-0.035156
0.160160
0.810550
1.314500
0.884770
0.169920
-0.070312
-0.138670
-0.183590
-0.199220
-0.214840
-0.214840
-0.224610
-0.214840
-0.208980
-0.208980
-0.199220
-0.189450
-0.179690
-0.173830
-0.173830
-0.164060
-0.154300
-0.148440
-0.144530
-0.134770
-0.128910
-0.144530
-0.138670
-0.128910
-0.125000
-0.119140
-0.125000
-0.119140
-0.103520
-0.099609
-0.089844
-0.080078
-0.054688
-0.035156
-0.019531
-0.013672
0.000000
0.000000
0.000000
0.005859
0.005859
0.000000
-0.003906
0.000000
0.000000
-0.003906
-0.013672
0.000000
-0.003906
0.000000
-0.003906
0.000000
0.005859
0.009766
0.000000
0.000000
0.000000
0.000000
0.005859
0.000000
0.005859
0.041016
0.054688
0.044922
0.035156
0.060547
0.080078
0.095703
0.099609
0.089844
0.035156
-0.019531
-0.054688
-0.064453
-0.064453
-0.070312
-0.058594
-0.039062
0.054688
0.480470
1.240200
1.349600
0.500000
0.025391
-0.089844
-0.160160
-0.189450
-0.208980
-0.208980
-0.208980
-0.205080
-0.199220
-0.193360
-0.193360
-0.189450
-0.189450
-0.183590
-0.173830
-0.169920
-0.160160
-0.164060
-0.148440
-0.148440
-0.138670
-0.138670
-0.134770
-0.125000
-0.125000
-0.134770
-0.128910
-0.128910
-0.125000
-0.119140
-0.103520
-0.083984
-0.070312
-0.048828
-0.025391
-0.009766
-0.003906
0.000000
0.000000
0.005859
0.000000
0.005859
0.000000
0.005859
0.000000
0.005859
0.000000
0.000000
-0.009766
-0.003906
0.000000
0.000000
0.000000
0.000000
0.000000
0.000000
0.000000
0.000000
0.000000
0.000000
0.000000
0.035156
0.060547
0.044922
0.035156
0.050781
0.076172
0.089844
0.095703
0.099609
0.041016
-0.019531
-0.058594
-0.074219
-0.074219
-0.074219
-0.070312
-0.044922
0.041016
0.404300
1.154300
1.353500
0.595700
0.050781
-0.093750
-0.169920
-0.205080
-0.218750
-0.224610
-0.224610
-0.218750
-0.214840
-0.214840
-0.205080
-0.199220
-0.199220
-0.189450
-0.183590
-0.179690
-0.173830
-0.164060
-0.160160
-0.154300
-0.144530
-0.154300
-0.148440
-0.144530
-0.144530
-0.144530
-0.144530
-0.144530
-0.144530
-0.138670
-0.125000
-0.115230
-0.099609
-0.070312
-0.048828
-0.025391
-0.013672
-0.003906
0.000000
0.005859
0.000000
0.000000
0.000000
0.005859
0.000000
-0.003906
-0.003906
-0.009766
-0.003906
-0.013672
-0.009766
-0.013672
-0.009766
-0.013672
-0.003906
-0.003906
0.000000
-0.003906
0.000000
0.000000
0.041016
0.054688
0.050781
0.041016
0.060547
0.080078
0.089844
0.095703
0.105470
0.035156
-0.013672
-0.054688
-0.070312
-0.074219
-0.070312
-0.064453
-0.044922
0.031250
0.355470
1.080100
1.318400
0.650390
0.076172
-0.080078
-0.160160
-0.189450
-0.208980
-0.214840
-0.214840
-0.208980
-0.214840
-0.208980
-0.205080
-0.189450
-0.189450
-0.183590
-0.173830
-0.179690
-0.169920
-0.164060
-0.154300
-0.154300
-0.144530
-0.138670
-0.134770
-0.134770
-0.134770
-0.144530
-0.138670
-0.138670
-0.128910
-0.128910
-0.115230
-0.103520
-0.083984
-0.064453
-0.035156
-0.019531
-0.003906
0.000000
0.005859
0.005859
0.009766
0.015625
0.005859
0.000000
0.000000
0.000000
-0.003906
-0.003906
-0.009766
-0.009766
-0.009766
-0.003906
-0.009766
0.000000
0.000000
0.005859
0.000000
0.005859
0.000000
0.009766
0.025391
0.064453
0.070312
0.050781
0.044922
0.076172
0.089844
0.095703
0.099609
0.080078
0.015625
-0.029297
-0.058594
-0.064453
-0.074219
-0.074219
-0.054688
-0.025391
0.125000
0.619140
1.294900
1.044900
0.339840
-0.013672
-0.119140
-0.179690
-0.199220
-0.214840
-0.208980
-0.214840
-0.214840
-0.208980
-0.199220
-0.189450
-0.189450
-0.189450
-0.183590
-0.179690
-0.173830
-0.164060
-0.164060
-0.148440
-0.148440
-0.144530
-0.144530
-0.138670
-0.134770
-0.134770
-0.128910
-0.138670
-0.134770
-0.128910
-0.119140
-0.103520
-0.093750
-0.070312
-0.039062
-0.025391
-0.009766
-0.003906
0.000000
0.000000
0.005859
0.000000
0.005859
0.000000
0.000000
-0.003906
0.000000
-0.013672
-0.019531
-0.013672
-0.003906
-0.013672
-0.009766
-0.003906
-0.003906
-0.009766
0.000000
0.000000
0.000000
0.000000
0.015625
0.054688
0.064453
0.041016
0.031250
0.070312
0.089844
0.099609
0.099609
0.076172
0.015625
-0.035156
-0.064453
-0.074219
-0.080078
-0.074219
-0.074219
-0.048828
0.019531
0.435550
1.193400
1.334000
0.500000
0.005859
-0.109380
-0.169920
-0.193360
-0.205080
-0.218750
-0.218750
-0.214840
-0.205080
-0.193360
-0.193360
-0.183590
-0.183590
-0.179690
-0.179690
-0.160160
-0.160160
-0.154300
-0.160160
-0.144530
-0.134770
-0.125000
-0.128910
-0.134770
-0.125000
-0.119140
-0.119140
-0.115230
-0.109380
-0.099609
-0.093750
-0.083984
-0.064453
-0.044922
-0.025391
-0.013672
-0.003906
-0.009766
0.005859
0.000000
0.009766
0.000000
0.000000
-0.009766
0.000000
-0.009766
0.000000
-0.003906
0.000000
0.000000
0.000000
0.000000
0.000000
0.005859
0.000000
0.009766
0.005859
0.000000
0.009766
0.041016
0.064453
0.064453
0.044922
0.041016
0.080078
0.095703
0.095703
0.099609
0.060547
-0.003906
-0.048828
-0.070312
-0.080078
-0.074219
-0.080078
-0.064453
-0.048828
0.115230
0.734380
1.349600
0.990230
0.250000
-0.035156
-0.134770
-0.179690
-0.205080
-0.214840
-0.224610
-0.214840
-0.214840
-0.205080
-0.205080
-0.193360
-0.193360
-0.189450
-0.179690
-0.173830
-0.169920
-0.164060
-0.164060
-0.160160
-0.148440
-0.144530
-0.138670
-0.144530
-0.134770
-0.144530
-0.138670
-0.144530
-0.138670
-0.138670
-0.128910
-0.119140
-0.099609
-0.080078
-0.054688
-0.035156
-0.013672
-0.009766
0.000000
0.000000
-0.003906
-0.009766
-0.003906
-0.009766
-0.009766
-0.009766
-0.003906
-0.009766
-0.009766
-0.009766
-0.013672
-0.009766
-0.009766
-0.003906
-0.003906
0.000000
-0.009766
0.000000
0.000000
0.000000
-0.003906
0.041016
0.050781
0.044922
0.035156
0.060547
0.076172
0.089844
0.089844
0.095703
0.025391
-0.029297
-0.064453
-0.074219
-0.074219
-0.074219
-0.070312
-0.044922
0.044922
0.416020
1.138700
1.339800
0.574220
0.050781
-0.099609
-0.173830
-0.199220
-0.214840
-0.214840
-0.224610
-0.218750
-0.218750
-0.214840
-0.208980
-0.214840
-0.205080
-0.193360
-0.189450
-0.183590
-0.173830
-0.173830
-0.164060
-0.169920
-0.160160
-0.160160
-0.148440
-0.154300
-0.144530
-0.154300
-0.154300
-0.154300
-0.144530
-0.144530
-0.134770
-0.119140
-0.093750
-0.074219
-0.044922
-0.025391
-0.009766
-0.003906
0.000000
-0.003906
0.000000
-0.003906
-0.009766
-0.003906
-0.013672
-0.003906
-0.019531
-0.013672
-0.019531
-0.013672
-0.019531
-0.013672
-0.013672
-0.009766
-0.009766
-0.003906
0.000000
0.000000
0.000000
0.000000
0.025391
0.054688
0.044922
0.035156
0.060547
0.076172
0.089844
0.089844
0.099609
0.035156
-0.019531
-0.058594
-0.074219
-0.074219
-0.074219
-0.080078
-0.054688
0.000000
0.259770
0.939450
1.304700
0.794920
0.134770
-0.070312
-0.148440
-0.193360
-0.208980
-0.218750
-0.218750
-0.214840
-0.214840
-0.214840
-0.208980
-0.199220
-0.193360
-0.189450
-0.189450
-0.183590
-0.183590
-0.164060
-0.169920
-0.154300
-0.154300
-0.144530
-0.144530
-0.144530
-0.144530
-0.144530
-0.144530
-0.144530
-0.144530
-0.134770
-0.128910
-0.109380
-0.093750
-0.074219
-0.048828
-0.029297
-0.019531
-0.009766
0.000000
0.000000
0.000000
0.000000
0.000000
0.000000
0.000000
-0.003906
-0.009766
-0.013672
-0.009766
-0.013672
-0.003906
-0.009766
-0.003906
-0.003906
0.000000
-0.003906
0.000000
0.000000
0.000000
0.005859
0.015625
0.054688
0.064453
0.044922
0.035156
0.064453
0.085938
0.089844
0.089844
0.076172
0.009766
-0.035156
-0.074219
-0.080078
-0.083984
-0.080078
-0.074219
-0.044922
0.050781
0.460940
1.199200
1.318400
0.484380
0.015625
-0.109380
-0.169920
-0.205080
-0.214840
-0.214840
-0.218750
-0.214840
-0.214840
-0.205080
-0.208980
-0.189450
-0.193360
-0.183590
-0.179690
-0.173830
-0.169920
-0.160160
-0.154300
-0.148440
-0.144530
-0.138670
-0.134770
-0.144530
-0.134770
-0.134770
-0.138670
-0.144530
-0.134770
-0.125000
-0.109380
-0.093750
-0.074219
-0.054688
-0.019531
-0.013672
-0.003906
-0.003906
0.000000
0.000000
0.000000
-0.003906
0.000000
-0.009766
-0.009766
-0.019531
-0.009766
-0.003906
-0.013672
-0.019531
-0.025391
-0.019531
-0.013672
-0.009766
-0.003906
0.000000
0.000000
0.000000
-0.003906
0.000000
0.015625
0.060547
0.044922
0.044922
0.041016
0.076172
0.089844
0.095703
0.095703
0.070312
0.005859
-0.039062
-0.070312
-0.074219
-0.080078
-0.074219
-0.070312
-0.044922
0.064453
0.539060
1.263700
1.304700
0.400390
-0.019531
-0.115230
-0.169920
-0.199220
-0.214840
-0.214840
-0.224610
-0.218750
-0.218750
-0.208980
-0.193360
-0.189450
-0.189450
-0.179690
-0.179690
-0.164060
-0.164060
-0.148440
-0.144530
-0.144530
-0.148440
-0.144530
-0.128910
-0.128910
-0.128910
-0.134770
-0.128910
-0.119140
-0.115230
-0.109380
-0.093750
-0.089844
-0.070312
-0.039062
-0.013672
-0.003906
-0.003906
-0.009766
-0.003906
0.000000
-0.003906
-0.003906
0.000000
-0.003906
-0.003906
0.000000
-0.009766
-0.003906
-0.009766
-0.003906
-0.003906
-0.003906
-0.003906
-0.009766
-0.013672
0.000000
-0.003906
0.005859
-0.003906
-0.009766
0.005859
0.050781
0.044922
0.035156
0.031250
0.064453
0.080078
0.089844
0.095703
0.076172
0.009766
-0.044922
-0.074219
-0.074219
-0.074219
-0.080078
-0.070312
-0.044922
0.070312
0.574220
1.308600
1.334000
0.384770
-0.013672
-0.115230
-0.183590
-0.208980
-0.218750
-0.214840
-0.218750
-0.224610
-0.214840
-0.208980
-0.205080
-0.208980
-0.193360
-0.189450
-0.183590
-0.179690
-0.164060
-0.164060
-0.164060
-0.154300
-0.144530
-0.144530
-0.144530
-0.144530
-0.138670
-0.138670
-0.134770
-0.134770
-0.125000
-0.119140
-0.115230
-0.093750
-0.074219
-0.054688
-0.035156
-0.025391
-0.009766
-0.003906
-0.003906
0.000000
-0.003906
0.000000
0.000000
0.000000
-0.009766
-0.003906
-0.009766
-0.003906
-0.009766
0.000000
-0.003906
-0.003906
-0.009766
0.000000
0.000000
0.000000
0.000000
0.000000
0.000000
0.000000
0.000000
0.015625
0.044922
0.050781
0.044922
0.035156
0.064453
0.080078
0.089844
0.085938
0.089844
0.009766
-0.039062
-0.070312
-0.074219
-0.074219
-0.074219
-0.070312
-0.035156
0.111330
0.619140
1.298800
1.304700
0.355470
-0.003906
-0.125000
-0.179690
-0.205080
-0.214840
-0.214840
-0.214840
-0.214840
-0.214840
-0.205080
-0.205080
-0.199220
-0.199220
-0.189450
-0.183590
-0.183590
-0.179690
-0.164060
-0.164060
-0.154300
-0.154300
-0.148440
-0.144530
-0.144530
-0.144530
-0.144530
-0.144530
-0.144530
-0.138670
-0.134770
-0.125000
-0.103520
-0.083984
-0.058594
-0.039062
-0.025391
-0.009766
-0.003906
0.000000
0.005859
0.009766
0.000000
0.005859
0.000000
0.000000
-0.003906
0.000000
-0.009766
-0.009766
-0.013672
-0.013672
-0.009766
-0.003906
0.000000
0.000000
0.000000
-0.003906
0.000000
-0.003906
0.000000
-0.003906
0.041016
0.054688
0.044922
0.041016
0.064453
0.080078
0.089844
0.089844
0.099609
0.019531
-0.029297
-0.064453
-0.070312
-0.070312
-0.074219
-0.070312
-0.044922
0.041016
0.380860
1.119100
1.324200
0.605470
0.060547
-0.093750
-0.164060
-0.199220
-0.218750
-0.224610
-0.218750
-0.214840
-0.214840
-0.208980
-0.205080
-0.193360
-0.199220
-0.189450
-0.183590
-0.173830
-0.173830
-0.164060
-0.154300
-0.148440
-0.144530
-0.144530
-0.144530
-0.138670
-0.134770
-0.138670
-0.144530
-0.138670
-0.128910
-0.134770
-0.115230
-0.109380
-0.089844
-0.070312
-0.044922
-0.025391
-0.013672
-0.003906
0.000000
0.000000
0.000000
0.000000
0.000000
-0.003906
-0.009766
-0.019531
-0.019531
-0.013672
-0.019531
-0.019531
-0.025391
-0.013672
-0.019531
-0.009766
-0.009766
-0.003906
-0.009766
0.000000
-0.003906
0.000000
0.000000
0.031250
0.050781
0.044922
0.031250
0.041016
0.070312
0.085938
0.085938
0.089844
0.044922
-0.013672
-0.054688
-0.074219
-0.074219
-0.074219
-0.074219
-0.058594
-0.013672
0.201170
0.849610
1.308600
0.849610
0.156250
-0.058594
-0.154300
-0.189450
-0.218750
-0.218750
-0.224610
-0.218750
-0.214840
-0.218750
-0.205080
-0.205080
-0.199220
-0.193360
-0.189450
-0.179690
-0.173830
-0.169920
-0.164060
-0.160160
-0.148440
-0.148440
-0.144530
-0.144530
-0.138670
-0.144530
-0.134770
-0.144530
-0.138670
-0.138670
-0.119140
-0.115230
-0.093750
-0.074219
-0.044922
-0.029297
-0.019531
-0.009766
-0.003906
0.000000
0.000000
-0.009766
-0.009766
-0.003906
-0.013672
-0.019531
-0.025391
-0.025391
-0.025391
-0.019531
-0.025391
-0.013672
-0.013672
-0.013672
-0.019531
-0.009766
-0.009766
-0.003906
0.000000
-0.009766
0.000000
0.019531
0.054688
0.054688
0.041016
0.035156
0.064453
0.080078
0.095703
0.099609
0.070312
0.000000
-0.044922
-0.074219
-0.074219
-0.074219
-0.074219
-0.070312
-0.044922
0.064453
0.599610
1.298800
1.080100
0.345700
-0.019531
-0.125000
-0.183590
-0.205080
-0.208980
-0.214840
-0.214840
-0.208980
-0.205080
-0.199220
-0.193360
-0.189450
-0.189450
-0.179690
-0.173830
-0.164060
-0.160160
-0.144530
-0.144530
-0.144530
-0.144530
-0.128910
-0.125000
-0.119140
-0.119140
-0.119140
-0.115230
-0.103520
-0.099609
-0.103520
-0.083984
-0.074219
-0.058594
-0.035156
-0.025391
-0.009766
0.000000
0.000000
0.009766
0.005859
-0.003906
-0.009766
-0.009766
0.000000
0.000000
-0.013672
-0.009766
-0.013672
-0.009766
-0.013672
-0.009766
-0.003906
-0.009766
0.000000
0.000000
0.000000
0.000000
0.000000
0.000000
0.005859
0.000000
0.025391
0.054688
0.054688
0.041016
0.050781
0.070312
0.089844
0.095703
0.099609
0.054688
-0.003906
-0.054688
-0.070312
-0.074219
-0.080078
-0.080078
-0.064453
-0.035156
0.185550
0.859380
1.343800
0.900390
0.185550
-0.058594
-0.148440
-0.193360
-0.214840
-0.218750
-0.224610
-0.218750
-0.218750
-0.208980
-0.214840
-0.205080
-0.199220
-0.193360
-0.189450
-0.179690
-0.173830
-0.164060
-0.160160
-0.154300
-0.148440
-0.144530
-0.144530
-0.134770
-0.128910
-0.134770
-0.134770
-0.138670
-0.134770
-0.128910
-0.119140
-0.115230
-0.093750
-0.074219
-0.044922
-0.025391
-0.009766
-0.003906
0.000000
0.000000
0.000000
0.000000
0.000000
0.000000
0.000000
-0.003906
0.000000
-0.009766
-0.013672
-0.009766
-0.013672
-0.009766
-0.009766
-0.003906
-0.003906
0.000000
0.000000
0.000000
0.000000
0.000000
-0.003906
0.009766
0.044922
0.054688
0.035156
0.041016
0.064453
0.085938
0.089844
0.080078
0.089844
0.005859
-0.048828
-0.070312
-0.074219
-0.074219
-0.074219
-0.064453
-0.035156
0.080078
0.539060
1.250000
1.324200
0.425780
0.009766
-0.115230
-0.169920
-0.199220
-0.214840
-0.214840
-0.214840
-0.214840
-0.214840
-0.208980
-0.199220
-0.193360
-0.189450
-0.183590
-0.183590
-0.169920
-0.164060
-0.164060
-0.164060
-0.154300
-0.154300
-0.144530
-0.144530
-0.134770
-0.144530
-0.144530
-0.144530
-0.138670
-0.144530
-0.119140
-0.115230
-0.093750
-0.080078
-0.054688
-0.039062
-0.019531
-0.009766
-0.003906
0.000000
0.009766
0.009766
0.005859
0.000000
0.000000
0.000000
0.000000
-0.003906
-0.009766
-0.003906
-0.013672
-0.003906
-0.009766
-0.003906
-0.003906
0.000000
0.000000
0.005859
0.000000
0.005859
0.000000
0.025391
0.060547
0.054688
0.041016
0.044922
0.064453
0.085938
0.089844
0.099609
0.064453
0.005859
-0.044922
-0.074219
-0.074219
-0.074219
-0.070312
-0.074219
-0.039062
0.080078
0.535160
1.253900
1.324200
0.425780
0.009766
-0.109380
-0.173830
-0.205080
-0.214840
-0.214840
-0.214840
-0.214840
-0.214840
-0.205080
-0.199220
-0.189450
-0.189450
-0.183590
-0.189450
-0.179690
-0.169920
-0.160160
-0.164060
-0.148440
-0.144530
-0.144530
-0.144530
-0.138670
-0.144530
-0.144530
-0.144530
-0.144530
-0.138670
-0.128910
-0.119140
-0.099609
-0.083984
-0.054688
-0.039062
-0.025391
-0.009766
-0.003906
0.000000
0.000000
0.005859
0.000000
0.000000
-0.003906
-0.009766
-0.013672
-0.009766
-0.013672
-0.013672
-0.019531
-0.013672
-0.009766
-0.003906
-0.009766
0.000000
0.000000
0.000000
0.000000
0.000000
0.000000
0.000000
0.005859
0.035156
0.060547
0.050781
0.041016
0.054688
0.080078
0.089844
0.089844
0.095703
0.041016
-0.019531
-0.054688
-0.074219
-0.070312
-0.074219
-0.070312
-0.054688
-0.003906
0.220700
0.904300
1.308600
0.814450
0.140620
-0.058594
-0.144530
-0.189450
-0.205080
-0.214840
-0.208980
-0.214840
-0.205080
-0.205080
-0.193360
-0.193360
-0.189450
-0.189450
-0.179690
-0.179690
-0.164060
-0.164060
-0.154300
-0.144530
-0.148440
-0.144530
-0.144530
-0.138670
-0.134770
-0.138670
-0.134770
-0.125000
-0.125000
-0.119140
-0.109380
-0.093750
-0.080078
-0.054688
-0.035156
-0.013672
-0.009766
0.000000
-0.003906
0.000000
0.000000
0.000000
0.000000
0.000000
-0.003906
-0.009766
-0.009766
-0.009766
-0.013672
-0.013672
-0.009766
-0.013672
-0.003906
-0.003906
-0.003906
0.000000
0.000000
0.000000
0.000000
0.000000
0.005859
0.019531
0.060547
0.060547
0.044922
0.041016
0.076172
0.089844
0.111330
0.111330
0.070312
0.000000
-0.048828
-0.070312
-0.070312
-0.074219
-0.074219
-0.064453
-0.039062
0.080078
0.570310
1.285200
1.289100
0.365230
-0.025391
-0.115230
-0.173830
-0.193360
-0.214840
-0.214840
-0.214840
-0.214840
-0.205080
-0.193360
-0.189450
-0.183590
-0.173830
-0.179690
-0.183590
-0.169920
-0.164060
-0.154300
-0.138670
-0.134770
-0.125000
-0.119140
-0.119140
-0.115230
-0.119140
-0.119140
-0.115230
-0.119140
-0.109380
-0.099609
-0.093750
-0.083984
-0.054688
-0.044922
-0.025391
-0.013672
-0.009766
-0.003906
0.000000
0.000000
0.000000
-0.003906
-0.009766
-0.009766
-0.009766
-0.009766
-0.013672
-0.009766
-0.013672
-0.003906
-0.009766
-0.003906
-0.003906
0.000000
0.000000
0.005859
0.000000
0.000000
0.000000
0.005859
0.005859
0.031250
0.060547
0.050781
0.035156
0.054688
0.085938
0.089844
0.099609
0.099609
0.060547
-0.009766
-0.048828
-0.070312
-0.074219
-0.074219
-0.074219
-0.058594
-0.029297
0.201170
0.869140
1.363300
0.910160
0.189450
-0.054688
-0.148440
-0.189450
-0.208980
-0.214840
-0.218750
-0.218750
-0.214840
-0.214840
-0.205080
-0.205080
-0.189450
-0.189450
-0.189450
-0.179690
-0.169920
-0.164060
-0.160160
-0.154300
-0.148440
-0.144530
-0.138670
-0.138670
-0.128910
-0.128910
-0.128910
-0.134770
-0.138670
-0.125000
-0.115230
-0.103520
-0.083984
-0.064453
-0.039062
-0.019531
-0.009766
0.000000
0.000000
0.000000
0.000000
0.005859
0.000000
0.000000
0.000000
0.000000
0.000000
-0.003906
-0.009766
-0.003906
-0.009766
-0.009766
-0.009766
-0.003906
-0.003906
-0.003906
0.000000
-0.003906
0.000000
-0.009766
-0.009766
0.009766
0.044922
0.044922
0.035156
0.019531
0.070312
0.080078
0.089844
0.089844
0.060547
-0.003906
-0.048828
-0.074219
-0.074219
-0.080078
-0.074219
-0.070312
-0.035156
0.111330
0.634770
1.304700
1.054700
0.320310
-0.019531
-0.128910
-0.189450
-0.208980
-0.214840
-0.218750
-0.218750
-0.214840
-0.214840
-0.205080
-0.208980
-0.199220
-0.193360
-0.189450
-0.183590
-0.173830
-0.169920
-0.164060
-0.160160
-0.154300
-0.144530
-0.148440
-0.144530
-0.144530
-0.138670
-0.144530
-0.144530
-0.144530
-0.134770
-0.134770
-0.119140
-0.103520
-0.080078
-0.054688
-0.035156
-0.025391
-0.003906
0.000000
0.000000
-0.003906
0.000000
0.000000
0.000000
0.000000
0.000000
-0.003906
-0.009766
-0.009766
-0.009766
-0.009766
-0.009766
-0.009766
-0.009766
-0.003906
-0.009766
0.000000
0.000000
0.000000
0.000000
0.005859
0.025391
0.060547
0.050781
0.041016
0.044922
0.076172
0.080078
0.089844
0.095703
0.054688
-0.003906
-0.048828
-0.074219
-0.074219
-0.074219
-0.074219
-0.058594
-0.019531
0.160160
0.714840
1.324200
0.984380
0.269530
-0.035156
-0.134770
-0.189450
-0.208980
-0.214840
-0.214840
-0.214840
-0.208980
-0.205080
-0.199220
-0.193360
-0.189450
-0.189450
-0.183590
-0.179690
-0.169920
-0.160160
-0.164060
-0.148440
-0.144530
-0.144530
-0.138670
-0.134770
-0.128910
-0.134770
-0.144530
-0.134770
-0.134770
-0.119140
-0.115230
-0.103520
-0.089844
-0.064453
-0.048828
-0.025391
-0.009766
0.000000
0.000000
0.005859
0.005859
0.000000
0.005859
0.000000
0.000000
0.000000
0.000000
-0.003906
-0.003906
-0.009766
-0.003906
-0.013672
-0.009766
-0.009766
-0.003906
-0.003906
0.005859
0.000000
0.005859
0.000000
0.015625
0.044922
0.070312
0.060547
0.044922
0.060547
0.080078
0.095703
0.095703
0.099609
0.035156
-0.019531
-0.070312
-0.074219
-0.080078
-0.083984
-0.083984
-0.058594
-0.019531
0.201170
0.884770
1.314500
0.824220
0.134770
-0.070312
-0.148440
-0.193360
-0.214840
-0.218750
-0.224610
-0.218750
-0.214840
-0.214840
-0.205080
-0.193360
-0.189450
-0.183590
-0.189450
-0.173830
-0.169920
-0.164060
-0.160160
-0.148440
-0.144530
-0.134770
-0.138670
-0.134770
-0.138670
-0.134770
-0.128910
-0.128910
-0.128910
-0.115230
-0.109380
-0.093750
-0.093750
-0.074219
-0.048828
-0.025391
-0.013672
-0.019531
-0.009766
-0.013672
-0.003906
-0.013672
-0.003906
-0.009766
-0.013672
-0.019531
-0.009766
-0.013672
-0.019531
-0.019531
-0.009766
-0.019531
-0.009766
-0.009766
-0.003906
0.000000
0.005859
0.000000
0.000000
-0.003906
0.000000
0.025391
0.064453
0.054688
0.041016
0.050781
0.070312
0.095703
0.099609
0.111330
0.054688
-0.009766
-0.054688
-0.074219
-0.080078
-0.074219
-0.074219
-0.064453
-0.044922
0.121090
0.734380
1.339800
0.955080
0.234380
-0.044922
-0.134770
-0.183590
-0.208980
-0.214840
-0.218750
-0.208980
-0.214840
-0.205080
-0.199220
-0.193360
-0.189450
-0.183590
-0.183590
-0.173830
-0.164060
-0.164060
-0.154300
-0.148440
-0.148440
-0.144530
-0.138670
-0.128910
-0.134770
-0.128910
-0.128910
-0.128910
-0.119140
-0.119140
-0.109380
-0.099609
-0.083984
-0.070312
-0.044922
-0.029297
-0.013672
-0.013672
-0.009766
-0.009766
0.000000
0.000000
0.000000
-0.009766
-0.003906
0.000000
-0.003906
-0.009766
-0.003906
-0.009766
-0.009766
-0.013672
-0.009766
-0.003906
-0.003906
0.000000
0.000000
0.000000
0.000000
0.000000
-0.003906
0.019531
0.050781
0.050781
0.035156
0.050781
0.070312
0.089844
0.085938
0.089844
0.050781
-0.009766
-0.058594
-0.074219
-0.083984
-0.083984
-0.083984
-0.064453
-0.029297
0.166020
0.765620
1.339800
0.968750
0.240230
-0.035156
-0.144530
-0.189450
-0.214840
-0.218750
-0.224610
-0.218750
-0.218750
-0.214840
-0.214840
-0.205080
-0.205080
-0.189450
-0.189450
-0.189450
-0.179690
-0.169920
-0.164060
-0.164060
-0.160160
-0.154300
-0.148440
-0.148440
-0.148440
-0.154300
-0.148440
-0.148440
-0.144530
-0.144530
-0.128910
-0.125000
-0.103520
-0.083984
-0.054688
-0.035156
-0.013672
-0.003906
0.000000
0.000000
0.000000
0.000000
0.000000
0.000000
0.000000
0.000000
-0.003906
0.000000
-0.009766
-0.003906
-0.013672
-0.009766
-0.009766
-0.009766
-0.003906
0.000000
0.000000
0.000000
0.000000
0.000000
0.000000
0.019531
0.050781
0.060547
0.035156
0.044922
0.070312
0.089844
0.089844
0.099609
0.060547
-0.003906
-0.054688
-0.074219
-0.074219
-0.074219
-0.074219
-0.070312
-0.035156
0.099609
0.609380
1.294900
1.298800
0.355470
-0.013672
-0.128910
-0.179690
-0.208980
-0.214840
-0.218750
-0.214840
-0.214840
-0.214840
-0.214840
-0.208980
-0.199220
-0.193360
-0.189450
-0.183590
-0.179690
-0.173830
-0.164060
-0.164060
-0.154300
-0.154300
-0.144530
-0.148440
-0.144530
-0.144530
-0.144530
-0.148440
-0.144530
-0.138670
-0.128910
-0.125000
-0.103520
-0.083984
-0.058594
-0.039062
-0.019531
-0.009766
0.000000
0.000000
0.000000
0.009766
0.000000
0.005859
-0.003906
0.000000
-0.009766
-0.009766
-0.013672
-0.009766
-0.013672
-0.009766
-0.019531
-0.009766
-0.003906
-0.009766
0.000000
0.000000
0.000000
0.000000
0.005859
0.041016
0.060547
0.044922
0.031250
0.050781
0.080078
0.089844
0.095703
0.085938
0.035156
-0.025391
-0.058594
-0.074219
-0.074219
-0.080078
-0.074219
-0.058594
-0.003906
0.250000
0.939450
1.298800
0.775390
0.121090
-0.064453
-0.154300
-0.189450
-0.214840
-0.218750
-0.214840
-0.214840
-0.214840
-0.214840
-0.205080
-0.199220
-0.189450
-0.189450
-0.183590
-0.179690
-0.169920
-0.164060
-0.154300
-0.148440
-0.144530
-0.144530
-0.144530
-0.144530
-0.138670
-0.138670
-0.134770
-0.134770
-0.138670
-0.125000
-0.119140
-0.099609
-0.089844
-0.064453
-0.039062
-0.019531
-0.013672
0.000000
0.000000
0.000000
-0.003906
0.000000
-0.003906
0.000000
-0.003906
0.000000
-0.009766
-0.009766
-0.019531
-0.019531
-0.019531
-0.013672
-0.003906
-0.009766
-0.003906
-0.009766
-0.003906
0.000000
0.000000
-0.003906
0.015625
0.050781
0.054688
0.035156
0.050781
0.070312
0.089844
0.095703
0.105470
0.064453
0.005859
-0.048828
-0.074219
-0.074219
-0.070312
-0.074219
-0.070312
-0.054688
0.054688
0.529300
1.273400
1.304700
0.404300
-0.019531
-0.119140
-0.173830
-0.205080
-0.214840
-0.214840
-0.214840
-0.214840
-0.208980
-0.199220
-0.189450
-0.189450
-0.189450
-0.183590
-0.173830
-0.169920
-0.160160
-0.148440
-0.144530
-0.144530
-0.138670
-0.128910
-0.138670
-0.125000
-0.119140
-0.119140
-0.115230
-0.103520
-0.103520
-0.089844
-0.080078
-0.058594
-0.054688
-0.035156
-0.025391
-0.009766
-0.003906
0.000000
-0.003906
0.000000
-0.003906
0.005859
0.000000
0.000000
-0.009766
-0.013672
-0.019531
-0.013672
-0.019531
-0.013672
-0.013672
-0.019531
-0.003906
-0.003906
0.000000
0.000000
0.000000
0.000000
0.000000
0.009766
0.050781
0.054688
0.041016
0.035156
0.070312
0.080078
0.095703
0.089844
0.076172
0.005859
-0.039062
-0.070312
-0.074219
-0.074219
-0.080078
-0.074219
-0.054688
0.031250
0.435550
1.214800
1.353500
0.529300
0.019531
-0.109380
-0.179690
-0.205080
-0.218750
-0.224610
-0.224610
-0.214840
-0.214840
-0.214840
-0.208980
-0.199220
-0.193360
-0.189450
-0.183590
-0.179690
-0.164060
-0.169920
-0.154300
-0.148440
-0.144530
-0.138670
-0.134770
-0.134770
-0.134770
-0.138670
-0.134770
-0.144530
-0.128910
-0.125000
-0.119140
-0.115230
-0.089844
-0.064453
-0.039062
-0.025391
-0.013672
-0.003906
-0.003906
-0.009766
-0.003906
-0.009766
-0.003906
0.000000
-0.009766
-0.003906
-0.009766
-0.009766
-0.009766
-0.003906
-0.009766
-0.003906
-0.009766
-0.003906
-0.003906
-0.003906
-0.003906
-0.003906
-0.003906
0.000000
0.035156
0.054688
0.044922
0.035156
0.060547
0.080078
0.089844
0.089844
0.099609
0.031250
-0.025391
-0.058594
-0.070312
-0.074219
-0.074219
-0.074219
-0.048828
0.000000
0.279300
0.990230
1.330100
0.769530
0.121090
-0.064453
-0.148440
-0.189450
-0.208980
-0.218750
-0.224610
-0.214840
-0.218750
-0.214840
-0.205080
-0.199220
-0.189450
-0.189450
-0.189450
-0.179690
-0.179690
-0.164060
-0.164060
-0.154300
-0.154300
-0.144530
-0.148440
-0.144530
-0.144530
-0.144530
-0.144530
-0.144530
-0.144530
-0.134770
-0.128910
-0.109380
-0.093750
-0.070312
-0.044922
-0.019531
-0.003906
-0.003906
0.000000
0.005859
0.005859
0.000000
0.005859
0.000000
0.000000
-0.003906
-0.009766
-0.013672
-0.009766
-0.019531
-0.013672
-0.019531
-0.009766
-0.009766
-0.003906
0.000000
0.000000
0.000000
0.000000
0.005859
0.025391
0.054688
0.050781
0.044922
0.041016
0.076172
0.085938
0.089844
0.089844
0.060547
-0.009766
-0.054688
-0.074219
-0.074219
-0.080078
-0.074219
-0.070312
-0.039062
0.085938
0.550780
1.253900
1.304700
0.404300
0.000000
-0.119140
-0.179690
-0.205080
-0.214840
-0.218750
-0.214840
-0.214840
-0.218750
-0.214840
-0.208980
-0.199220
-0.193360
-0.183590
-0.183590
-0.169920
-0.169920
-0.164060
-0.164060
-0.154300
-0.148440
-0.154300
-0.144530
-0.144530
-0.138670
-0.144530
-0.144530
-0.144530
-0.138670
-0.128910
-0.119140
-0.099609
-0.080078
-0.058594
-0.035156
-0.019531
-0.003906
-0.003906
0.005859
0.000000
0.005859
0.000000
0.000000
-0.003906
-0.003906
-0.009766
-0.009766
-0.013672
-0.009766
-0.009766
-0.009766
-0.003906
-0.009766
-0.009766
-0.003906
0.000000
0.000000
0.000000
0.000000
0.025391
0.060547
0.070312
0.041016
0.035156
0.064453
0.085938
0.095703
0.099609
0.076172
0.005859
-0.044922
-0.064453
-0.074219
-0.074219
-0.074219
-0.070312
-0.048828
0.044922
0.416020
1.164100
1.314500
0.535160
0.025391
-0.103520
-0.164060
-0.199220
-0.208980
-0.214840
-0.208980
-0.214840
-0.205080
-0.205080
-0.193360
-0.189450
-0.183590
-0.179690
-0.173830
-0.164060
-0.164060
-0.164060
-0.148440
-0.144530
-0.144530
-0.144530
-0.138670
-0.134770
-0.125000
-0.125000
-0.134770
-0.125000
-0.119140
-0.109380
-0.103520
-0.093750
-0.074219
-0.048828
-0.029297
-0.013672
-0.009766
0.000000
-0.003906
0.000000
-0.003906
-0.003906
-0.009766
-0.009766
-0.013672
-0.019531
-0.019531
-0.009766
-0.003906
-0.009766
-0.003906
-0.009766
0.000000
0.000000
0.000000
0.000000
-0.003906
0.000000
0.015625
0.041016
0.064453
0.044922
0.041016
0.054688
0.085938
0.105470
0.115230
0.105470
0.054688
-0.009766
-0.054688
-0.070312
-0.074219
-0.074219
-0.064453
-0.054688
-0.039062
0.105470
0.679690
1.339800
1.035200
0.294920
-0.035156
-0.115230
-0.169920
-0.193360
-0.214840
-0.214840
-0.208980
-0.214840
-0.199220
-0.193360
-0.189450
-0.189450
-0.179690
-0.173830
-0.164060
-0.164060
-0.160160
-0.154300
-0.148440
-0.144530
-0.134770
-0.134770
-0.125000
-0.128910
-0.125000
-0.128910
-0.125000
-0.125000
-0.119140
-0.115230
-0.103520
-0.089844
-0.070312
-0.048828
-0.029297
-0.025391
-0.013672
0.000000
0.000000
-0.003906
-0.009766
-0.003906
-0.003906
-0.009766
-0.009766
-0.003906
-0.009766
-0.009766
-0.009766
-0.003906
-0.009766
0.000000
-0.003906
-0.003906
0.000000
0.000000
0.000000
0.000000
0.000000
0.041016
0.054688
0.044922
0.041016
0.060547
0.076172
0.089844
0.089844
0.095703
0.025391
-0.029297
-0.070312
-0.074219
-0.074219
-0.074219
-0.070312
-0.054688
0.009766
0.324220
1.099600
1.349600
0.708980
0.089844
-0.083984
-0.160160
-0.193360
-0.214840
-0.214840
-0.218750
-0.218750
-0.214840
-0.208980
-0.205080
-0.199220
-0.189450
-0.189450
-0.179690
-0.173830
-0.164060
-0.169920
-0.154300
-0.154300
-0.144530
-0.144530
-0.138670
-0.138670
-0.134770
-0.144530
-0.138670
-0.138670
-0.134770
-0.125000
-0.109380
-0.099609
-0.080078
-0.058594
-0.035156
-0.019531
-0.009766
0.000000
0.000000
0.000000
0.000000
0.005859
-0.003906
-0.003906
-0.009766
-0.003906
-0.013672
-0.009766
-0.013672
-0.003906
-0.013672
-0.009766
-0.013672
-0.009766
-0.003906
0.000000
0.000000
-0.003906
-0.009766
0.015625
0.044922
0.044922
0.031250
0.041016
0.070312
0.085938
0.089844
0.085938
0.060547
-0.009766
-0.048828
-0.074219
-0.080078
-0.083984
-0.074219
-0.074219
-0.044922
0.076172
0.509770
1.250000
1.324200
0.445310
0.009766
-0.115230
-0.179690
-0.208980
-0.218750
-0.224610
-0.218750
-0.214840
-0.214840
-0.208980
-0.214840
-0.205080
-0.205080
-0.189450
-0.189450
-0.179690
-0.179690
-0.164060
-0.164060
-0.154300
-0.148440
-0.148440
-0.144530
-0.148440
-0.144530
-0.144530
-0.148440
-0.144530
-0.144530
-0.144530
-0.128910
-0.119140
-0.093750
-0.070312
-0.039062
-0.025391
-0.013672
-0.003906
0.000000
0.000000
0.000000
0.000000
0.000000
-0.003906
-0.003906
-0.009766
-0.009766
-0.019531
-0.013672
-0.019531
-0.019531
-0.013672
-0.009766
-0.003906
0.000000
0.000000
0.000000
0.000000
0.000000
0.031250
0.060547
0.054688
0.035156
0.050781
0.076172
0.095703
0.089844
0.095703
0.050781
-0.009766
-0.054688
-0.074219
-0.080078
-0.080078
-0.080078
-0.070312
-0.039062
0.089844
0.580080
1.285200
1.304700
0.365230
-0.009766
-0.119140
-0.173830
-0.205080
-0.214840
-0.214840
-0.214840
-0.214840
-0.208980
-0.205080
-0.199220
-0.199220
-0.189450
-0.183590
-0.173830
-0.169920
-0.160160
-0.154300
-0.148440
-0.144530
-0.148440
-0.138670
-0.144530
-0.134770
-0.134770
-0.138670
-0.138670
-0.128910
-0.128910
-0.119140
-0.109380
-0.089844
-0.074219
-0.048828
-0.025391
-0.003906
0.000000
0.005859
0.009766
0.005859
0.000000
0.000000
-0.003906
-0.003906
-0.003906
-0.003906
-0.009766
-0.013672
-0.009766
-0.013672
-0.009766
-0.013672
-0.003906
-0.009766
0.000000
0.000000
0.000000
0.000000
0.009766
0.041016
0.060547
0.044922
0.035156
0.054688
0.080078
0.089844
0.095703
0.105470
0.035156
-0.025391
-0.058594
-0.070312
-0.074219
-0.080078
-0.074219
-0.064453
-0.035156
0.130860
0.734380
1.314500
0.945310
0.224610
-0.044922
-0.134770
-0.189450
-0.208980
-0.214840
-0.214840
-0.214840
-0.214840
-0.214840
-0.193360
-0.199220
-0.193360
-0.189450
-0.179690
-0.173830
-0.164060
-0.160160
-0.164060
-0.144530
-0.144530
-0.138670
-0.144530
-0.134770
-0.134770
-0.134770
-0.134770
-0.134770
-0.134770
-0.119140
-0.119140
-0.103520
-0.080078
-0.058594
-0.044922
-0.025391
-0.013672
-0.003906
-0.003906
0.000000
0.000000
0.000000
0.000000
-0.003906
-0.013672
-0.013672
-0.013672
-0.013672
-0.009766
-0.013672
-0.009766
-0.009766
0.000000
-0.003906
0.000000
-0.003906
0.005859
0.009766
0.000000
0.005859
0.050781
0.064453
0.050781
0.044922
0.076172
0.089844
0.105470
0.111330
0.095703
0.031250
-0.025391
-0.058594
-0.074219
-0.064453
-0.070312
-0.070312
-0.054688
-0.013672
0.220700
0.939450
1.343800
0.824220
0.130860
-0.058594
-0.138670
-0.173830
-0.205080
-0.214840
-0.208980
-0.214840
-0.205080
-0.189450
-0.189450
-0.189450
-0.183590
-0.179690
-0.173830
-0.169920
-0.160160
-0.164060
-0.144530
-0.144530
-0.134770
-0.128910
-0.125000
-0.125000
-0.119140
-0.119140
-0.119140
-0.119140
-0.115230
-0.103520
-0.099609
-0.089844
-0.070312
-0.048828
-0.029297
-0.013672
0.000000
0.005859
0.000000
0.000000
0.000000
0.000000
0.000000
0.000000
-0.003906
-0.003906
-0.009766
-0.013672
-0.019531
-0.013672
-0.009766
0.000000
0.000000
-0.003906
-0.003906
0.000000
-0.003906
0.000000
0.000000
0.000000
0.000000
0.000000
0.031250
0.050781
0.044922
0.031250
0.054688
0.070312
0.089844
0.089844
0.095703
0.035156
-0.019531
-0.064453
-0.070312
-0.074219
-0.070312
-0.070312
-0.048828
-0.013672
0.210940
0.888670
1.359400
0.884770
0.179690
-0.054688
-0.138670
-0.189450
-0.205080
-0.208980
-0.214840
-0.214840
-0.208980
-0.205080
-0.205080
-0.193360
-0.199220
-0.179690
-0.183590
-0.169920
-0.169920
-0.154300
-0.160160
-0.144530
-0.144530
-0.138670
-0.134770
-0.128910
-0.134770
-0.138670
-0.134770
-0.134770
-0.134770
-0.128910
-0.119140
-0.109380
-0.093750
-0.070312
-0.044922
-0.025391
-0.003906
0.000000
0.005859
0.000000
0.005859
0.005859
0.005859
0.000000
0.000000
0.000000
0.000000
-0.003906
-0.009766
-0.013672
-0.009766
-0.003906
-0.009766
-0.009766
-0.003906
0.000000
0.000000
0.000000
0.000000
0.000000
0.009766
0.050781
0.044922
0.041016
0.035156
0.076172
0.085938
0.095703
0.095703
0.070312
0.005859
-0.044922
-0.070312
-0.074219
-0.083984
-0.080078
-0.074219
-0.054688
0.019531
0.335940
1.074200
1.314500
0.654300
0.076172
-0.083984
-0.164060
-0.193360
-0.214840
-0.218750
-0.218750
-0.214840
-0.214840
-0.205080
-0.208980
-0.199220
-0.199220
-0.189450
-0.189450
-0.179690
-0.169920
-0.164060
-0.160160
-0.154300
-0.148440
-0.154300
-0.144530
-0.144530
-0.138670
-0.144530
-0.144530
-0.138670
-0.134770
-0.134770
-0.119140
-0.103520
-0.089844
-0.070312
-0.039062
-0.029297
-0.009766
-0.003906
0.000000
0.000000
0.000000
0.000000
-0.003906
-0.013672
-0.009766
-0.013672
-0.019531
-0.013672
-0.019531
-0.013672
-0.019531
-0.013672
-0.019531
-0.009766
-0.013672
-0.003906
-0.003906
0.000000
0.000000
0.005859
0.000000
0.009766
0.044922
0.060547
0.044922
0.041016
0.064453
0.089844
0.089844
0.095703
0.099609
0.019531
-0.039062
-0.064453
-0.070312
-0.074219
-0.074219
-0.074219
-0.054688
0.005859
0.285160
0.974610
1.279300
0.724610
0.105470
-0.074219
-0.154300
-0.193360
-0.208980
-0.214840
-0.214840
-0.214840
-0.208980
-0.205080
-0.205080
-0.189450
-0.189450
-0.183590
-0.183590
-0.179690
-0.164060
-0.164060
-0.154300
-0.144530
-0.144530
-0.138670
-0.138670
-0.125000
-0.128910
-0.128910
-0.134770
-0.128910
-0.125000
-0.119140
-0.115230
-0.099609
-0.083984
-0.058594
-0.039062
-0.019531
-0.003906
-0.003906
0.000000
0.000000
0.005859
-0.003906
0.000000
0.000000
0.000000
-0.009766
-0.003906
-0.009766
-0.009766
-0.013672
-0.009766
-0.009766
-0.003906
-0.003906
-0.003906
0.000000
0.000000
-0.003906
0.000000
0.000000
0.000000
0.005859
0.044922
0.060547
0.044922
0.035156
0.054688
0.085938
0.089844
0.095703
0.085938
0.035156
-0.025391
-0.054688
-0.074219
-0.070312
-0.074219
-0.074219
-0.058594
-0.019531
0.179690
0.804690
1.308600
0.869140
0.185550
-0.054688
-0.144530
-0.183590
-0.205080
-0.214840
-0.214840
-0.214840
-0.205080
-0.205080
-0.189450
-0.189450
-0.189450
-0.189450
-0.179690
-0.164060
-0.154300
-0.160160
-0.144530
-0.144530
-0.134770
-0.128910
-0.134770
-0.125000
-0.125000
-0.119140
-0.119140
-0.119140
-0.119140
-0.103520
-0.093750
-0.083984
-0.074219
-0.048828
-0.025391
-0.009766
-0.003906
0.000000
-0.003906
0.000000
0.000000
0.005859
0.000000
0.000000
-0.003906
-0.009766
-0.009766
0.000000
-0.013672
-0.013672
-0.013672
-0.009766
-0.003906
-0.003906
0.000000
0.005859
0.000000
0.000000
0.009766
0.005859
0.005859
0.009766
0.050781
0.064453
0.050781
0.041016
0.064453
0.085938
0.105470
0.105470
0.115230
0.044922
-0.009766
-0.054688
-0.070312
-0.074219
-0.070312
-0.074219
-0.054688
-0.029297
0.144530
0.753910
1.339800
0.939450
0.230470
-0.044922
-0.134770
-0.173830
-0.205080
-0.214840
-0.214840
-0.214840
-0.214840
-0.208980
-0.199220
-0.189450
-0.189450
-0.183590
-0.173830
-0.164060
-0.164060
-0.154300
-0.148440
-0.154300
-0.138670
-0.138670
-0.128910
-0.128910
-0.119140
-0.125000
-0.119140
-0.125000
-0.119140
-0.119140
-0.109380
-0.109380
-0.089844
-0.074219
-0.048828
-0.039062
-0.025391
-0.019531
-0.009766
-0.013672
-0.009766
-0.003906
-0.009766
-0.003906
-0.009766
0.000000
-0.003906
-0.009766
-0.013672
-0.003906
-0.009766
-0.003906
-0.003906
-0.003906
-0.003906
-0.003906
-0.003906
0.000000
-0.003906
0.000000
-0.003906
0.000000
0.035156
0.054688
0.044922
0.035156
0.050781
0.076172
0.085938
0.089844
0.095703
0.025391
-0.029297
-0.070312
-0.080078
-0.080078
-0.074219
-0.080078
-0.058594
-0.013672
0.246090
0.935550
1.334000
0.814450
0.144530
-0.064453
-0.154300
-0.193360
-0.214840
-0.228520
-0.224610
-0.224610
-0.218750
-0.214840
-0.208980
-0.205080
-0.199220
-0.189450
-0.183590
-0.183590
-0.183590
-0.169920
-0.164060
-0.160160
-0.154300
-0.144530
-0.148440
-0.138670
-0.144530
-0.138670
-0.144530
-0.138670
-0.144530
-0.134770
-0.125000
-0.115230
-0.099609
-0.074219
-0.048828
-0.025391
-0.009766
-0.003906
0.000000
0.000000
0.000000
0.000000
0.000000
-0.003906
0.000000
-0.009766
-0.003906
-0.013672
-0.009766
-0.013672
-0.009766
-0.009766
-0.009766
-0.009766
-0.003906
-0.003906
0.000000
-0.009766
-0.009766
-0.013672
-0.009766
0.015625
0.050781
0.044922
0.031250
0.041016
0.064453
0.080078
0.085938
0.089844
0.050781
-0.009766
-0.054688
-0.074219
-0.080078
-0.080078
-0.080078
-0.070312
-0.044922
0.085938
0.574220
1.285200
1.308600
0.375000
-0.009766
-0.125000
-0.183590
-0.214840
-0.218750
-0.218750
-0.214840
-0.218750
-0.214840
-0.214840
-0.208980
-0.199220
-0.193360
-0.189450
-0.183590
-0.179690
-0.169920
-0.164060
-0.160160
-0.160160
-0.148440
-0.144530
-0.144530
-0.148440
-0.144530
-0.144530
-0.138670
-0.144530
-0.138670
-0.128910
-0.119140
-0.109380
-0.083984
-0.058594
-0.044922
-0.025391
-0.013672
-0.003906
0.000000
0.000000
0.000000
0.000000
-0.003906
-0.003906
-0.013672
-0.013672
-0.019531
-0.009766
-0.019531
-0.019531
-0.013672
-0.019531
-0.009766
-0.013672
-0.003906
-0.009766
-0.003906
0.000000
0.000000
0.000000
0.009766
0.041016
0.060547
0.044922
0.035156
0.060547
0.085938
0.089844
0.089844
0.080078
0.025391
-0.029297
-0.064453
-0.074219
-0.074219
-0.074219
-0.070312
-0.048828
0.015625
0.291020
1.003900
1.289100
0.720700
0.095703
-0.080078
-0.154300
-0.193360
-0.208980
-0.214840
-0.214840
-0.214840
-0.214840
-0.214840
-0.193360
-0.199220
-0.189450
-0.189450
-0.179690
-0.173830
-0.164060
-0.164060
-0.154300
-0.148440
-0.144530
-0.134770
-0.138670
-0.138670
-0.134770
-0.128910
-0.138670
-0.134770
-0.138670
-0.125000
-0.119140
-0.093750
-0.089844
-0.064453
-0.039062
-0.019531
-0.009766
0.000000
0.000000
0.000000
0.000000
0.000000
0.000000
-0.009766
-0.003906
-0.019531
-0.013672
-0.013672
-0.019531
-0.025391
-0.013672
-0.019531
-0.013672
-0.013672
-0.003906
0.000000
0.000000
-0.003906
0.005859
0.005859
0.005859
0.025391
0.060547
0.050781
0.035156
0.025391
0.070312
0.085938
0.095703
0.099609
0.060547
-0.003906
-0.048828
-0.070312
-0.074219
-0.080078
-0.083984
-0.070312
-0.048828
0.044922
0.509770
1.240200
1.304700
0.429690
-0.019531
-0.128910
-0.179690
-0.205080
-0.214840
-0.218750
-0.218750
-0.224610
-0.208980
-0.193360
-0.189450
-0.199220
-0.189450
-0.189450
-0.183590
-0.179690
-0.164060
-0.154300
-0.160160
-0.148440
-0.144530
-0.138670
-0.125000
-0.134770
-0.125000
-0.125000
-0.109380
-0.119140
-0.109380
-0.103520
-0.093750
-0.089844
-0.058594
-0.039062
-0.025391
-0.013672
-0.003906
0.005859
-0.003906
0.000000
-0.003906
0.000000
-0.003906
0.000000
-0.009766
-0.009766
-0.025391
-0.013672
-0.025391
-0.019531
-0.019531
-0.009766
-0.013672
-0.009766
-0.013672
-0.009766
-0.009766
-0.003906
0.000000
0.000000
0.000000
0.025391
0.044922
0.044922
0.035156
0.044922
0.076172
0.089844
0.099609
0.089844
0.054688
-0.013672
-0.054688
-0.074219
-0.074219
-0.074219
-0.070312
-0.064453
-0.039062
0.111330
0.714840
1.334000
1.009800
0.269530
-0.035156
-0.134770
-0.189450
-0.214840
-0.218750
-0.218750
-0.228520
-0.218750
-0.214840
-0.208980
-0.205080
-0.193360
-0.189450
-0.183590
-0.183590
-0.173830
-0.164060
-0.160160
-0.160160
-0.148440
-0.144530
-0.138670
-0.134770
-0.128910
-0.134770
-0.134770
-0.134770
-0.128910
-0.125000
-0.119140
-0.103520
-0.093750
-0.074219
-0.044922
-0.025391
-0.009766
0.000000
0.000000
0.005859
0.000000
0.000000
-0.003906
0.000000
-0.003906
0.000000
0.000000
0.000000
-0.003906
0.000000
-0.003906
-0.003906
-0.003906
0.000000
0.000000
0.000000
0.000000
0.000000
0.005859
0.000000
-0.003906
-0.003906
0.015625
0.044922
0.050781
0.031250
0.041016
0.070312
0.089844
0.085938
0.095703
0.060547
0.000000
-0.048828
-0.074219
-0.074219
-0.080078
-0.074219
-0.064453
-0.039062
0.070312
0.529300
1.250000
1.330100
0.425780
0.005859
-0.115230
-0.173830
-0.205080
-0.214840
-0.218750
-0.214840
-0.218750
-0.214840
-0.208980
-0.199220
-0.193360
-0.189450
-0.189450
-0.189450
-0.179690
-0.173830
-0.164060
-0.164060
-0.154300
-0.160160
-0.148440
-0.144530
-0.144530
-0.148440
-0.144530
-0.148440
-0.144530
-0.144530
-0.134770
-0.125000
-0.109380
-0.093750
-0.064453
-0.044922
-0.025391
-0.019531
0.000000
0.000000
0.005859
0.000000
0.000000
-0.003906
-0.003906
-0.003906
-0.009766
-0.003906
-0.013672
-0.009766
-0.013672
-0.009766
-0.019531
-0.013672
-0.009766
-0.003906
-0.009766
0.000000
0.000000
0.000000
-0.003906
0.000000
0.035156
0.060547
0.041016
0.031250
0.050781
0.076172
0.085938
0.089844
0.095703
0.035156
-0.019531
-0.064453
-0.074219
-0.080078
-0.083984
-0.080078
-0.070312
-0.029297
0.144530
0.740230
1.330100
0.958980
0.234380
-0.039062
-0.134770
-0.193360
-0.214840
-0.224610
-0.218750
-0.224610
-0.214840
-0.208980
-0.214840
-0.205080
-0.205080
-0.193360
-0.189450
-0.183590
-0.179690
-0.164060
-0.164060
-0.160160
-0.160160
-0.148440
-0.144530
-0.144530
-0.144530
-0.138670
-0.144530
-0.134770
-0.134770
-0.128910
-0.125000
-0.115230
-0.099609
-0.074219
-0.054688
-0.029297
-0.013672
-0.009766
0.000000
0.000000
0.000000
0.000000
0.000000
0.000000
0.000000
-0.003906
-0.003906
-0.019531
-0.009766
-0.013672
-0.013672
-0.013672
-0.009766
-0.013672
-0.003906
-0.003906
-0.003906
0.000000
0.000000
0.000000
0.000000
0.000000
0.031250
0.064453
0.060547
0.035156
0.050781
0.076172
0.085938
0.089844
0.095703
0.050781
-0.019531
-0.054688
-0.074219
-0.074219
-0.080078
-0.074219
-0.064453
-0.035156
0.095703
0.625000
1.298800
1.048800
0.320310
-0.025391
-0.119140
-0.179690
-0.208980
-0.214840
-0.208980
-0.208980
-0.205080
-0.208980
-0.199220
-0.199220
-0.189450
-0.189450
-0.173830
-0.179690
-0.169920
-0.164060
-0.154300
-0.154300
-0.144530
-0.144530
-0.134770
-0.138670
-0.128910
-0.134770
-0.128910
-0.134770
-0.134770
-0.125000
-0.119140
-0.109380
-0.093750
-0.070312
-0.048828
-0.029297
-0.019531
-0.003906
-0.003906
0.000000
0.000000
0.005859
0.000000
0.000000
0.000000
-0.003906
-0.013672
-0.013672
-0.025391
-0.025391
-0.019531
-0.013672
-0.013672
-0.009766
-0.009766
-0.003906
0.000000
-0.003906
0.000000
0.000000
0.000000
0.019531
0.060547
0.044922
0.041016
0.035156
0.070312
0.085938
0.099609
0.095703
0.076172
0.005859
-0.039062
-0.074219
-0.080078
-0.089844
-0.080078
-0.074219
-0.054688
-0.013672
0.279300
1.035200
1.304700
0.699220
0.076172
-0.074219
-0.148440
-0.183590
-0.208980
-0.205080
-0.208980
-0.205080
-0.205080
-0.193360
-0.193360
-0.189450
-0.179690
-0.169920
-0.164060
-0.164060
-0.164060
-0.144530
-0.138670
-0.134770
-0.128910
-0.128910
-0.119140
-0.115230
-0.119140
-0.115230
-0.115230
-0.115230
-0.093750
-0.093750
-0.083984
-0.074219
-0.058594
-0.048828
-0.019531
-0.009766
0.000000
0.000000
0.000000
0.005859
0.000000
-0.003906
0.000000
0.000000
-0.009766
-0.013672
-0.009766
-0.013672
-0.019531
-0.013672
-0.019531
-0.013672
-0.009766
-0.003906
-0.009766
0.000000
0.000000
0.000000
0.000000
0.000000
0.000000
0.035156
0.044922
0.050781
0.031250
0.060547
0.076172
0.089844
0.095703
0.099609
0.035156
-0.019531
-0.064453
-0.074219
-0.080078
-0.083984
-0.074219
-0.064453
-0.035156
0.175780
0.843750
1.353500
0.904300
0.185550
-0.054688
-0.154300
-0.189450
-0.214840
-0.224610
-0.224610
-0.218750
-0.218750
-0.214840
-0.208980
-0.205080
-0.199220
-0.189450
-0.189450
-0.183590
-0.173830
-0.164060
-0.164060
-0.154300
-0.144530
-0.144530
-0.138670
-0.138670
-0.138670
-0.144530
-0.138670
-0.138670
-0.134770
-0.134770
-0.119140
-0.119140
-0.099609
-0.080078
-0.054688
-0.039062
-0.019531
-0.009766
-0.003906
-0.003906
0.000000
0.000000
0.000000
-0.009766
-0.009766
-0.003906
-0.009766
-0.009766
-0.013672
-0.009766
-0.013672
-0.003906
-0.009766
-0.003906
-0.009766
-0.003906
-0.009766
-0.003906
-0.003906
0.000000
-0.003906
0.005859
0.041016
0.050781
0.041016
0.031250
0.060547
0.080078
0.089844
0.085938
0.089844
0.009766
-0.039062
-0.074219
-0.074219
-0.074219
-0.074219
-0.074219
-0.054688
0.009766
0.339840
1.089800
1.330100
0.660160
0.076172
-0.083984
-0.160160
-0.193360
-0.214840
-0.218750
-0.214840
-0.214840
-0.214840
-0.208980
-0.208980
-0.199220
-0.193360
-0.189450
-0.189450
-0.179690
-0.169920
-0.164060
-0.164060
-0.154300
-0.160160
-0.144530
-0.144530
-0.144530
-0.144530
-0.144530
-0.144530
-0.144530
-0.138670
-0.134770
-0.125000
-0.115230
-0.093750
-0.074219
