0.636360
0.656890
0.673510
0.688170
0.699900
0.708700
0.716520
0.720430
0.723360
0.724340
0.725320
0.724340
0.722390
0.718480
0.713590
0.706740
0.698920
0.689150
0.677420
0.664710
0.652000
0.636360
0.620720
0.604110
0.587490
0.571850
0.557180
0.544480
0.533720
0.523950
0.515150
0.506350
0.500490
0.493650
0.487780
0.480940
0.474100
0.467250
0.461390
0.454550
0.447700
0.441840
0.435970
0.431090
0.426200
0.422290
0.417400
0.412510
0.407620
0.402740
0.397850
0.392960
0.389050
0.385140
0.381230
0.377320
0.374390
0.371460
0.368520
0.364610
0.360700
0.356790
0.352880
0.348970
0.344090
0.341150
0.338220
0.338220
0.340180
0.346040
0.355820
0.372430
0.394920
0.422290
0.455520
0.489740
0.524930
0.558160
0.588470
0.615840
0.638320
0.654940
0.667640
0.680350
0.690130
0.697950
0.704790
0.708700
0.711630
0.712610
0.712610
0.711630
0.708700
0.704790
0.699900
0.693060
0.685240
0.675460
0.663730
0.650050
0.635390
0.618770
0.603130
0.586510
0.570870
0.555230
0.542520
0.531770
0.520040
0.510260
0.500490
0.491690
0.483870
0.477030
0.470190
0.463340
0.457480
0.451610
0.445750
0.440860
0.436950
0.432060
0.426200
0.421310
0.417400
0.413490
0.409580
0.404690
0.400780
0.395890
0.391980
0.388070
0.386120
0.382210
0.378300
0.374390
0.363640
0.349950
0.341150
0.335290
0.330400
0.326490
0.322580
0.317690
0.314760
0.312810
0.309870
0.307920
0.308900
0.313780
0.324540
0.342130
0.367550
0.397850
0.434020
0.473120
0.506350
0.537630
0.569890
0.600200
0.626590
0.649070
0.667640
0.683280
0.695990
0.705770
0.713590
0.718480
0.722390
0.724340
0.723360
0.721410
0.718480
0.714570
0.708700
0.700880
0.691100
0.679370
0.666670
0.651030
0.634410
0.618770
0.603130
0.586510
0.569890
0.553270
0.537630
0.522970
0.510260
0.499510
0.489740
0.479960
0.472140
0.465300
0.458460
0.452590
0.446730
0.439880
0.433040
0.426200
0.420330
0.413490
0.407620
0.401760
0.395890
0.390030
0.386120
0.382210
0.376340
0.371460
0.366570
0.360700
0.355820
0.351910
0.347020
0.342130
0.337240
0.334310
0.330400
0.327470
0.324540
0.320630
0.315740
0.310850
0.305960
0.301080
0.297170
0.296190
0.298140
0.304010
0.314760
0.329420
0.348970
0.374390
0.406650
0.441840
0.478010
0.513200
0.545450
0.574780
0.600200
0.621700
0.638320
0.651030
0.658850
0.663730
0.668620
0.673510
0.677420
0.681330
0.687190
0.695010
0.702830
0.712610
0.720430
0.726300
0.729230
0.728250
0.725320
0.717500
0.706740
0.692080
0.673510
0.652980
0.629520
0.605080
0.581620
0.558160
0.537630
0.520040
0.506350
0.492670
0.479960
0.468230
0.455520
0.444770
0.434020
0.424240
0.414470
0.404690
0.396870
0.390030
0.384160
0.378300
0.372430
0.367550
0.364610
0.361680
0.358750
0.354840
0.350930
0.347020
0.341150
0.335290
0.330400
0.325510
0.318670
0.310850
0.303030
0.295210
0.287390
0.278590
0.269790
0.261000
0.252200
0.243400
0.237540
0.233630
0.230690
0.230690
0.235580
0.245360
0.261970
0.285430
0.312810
0.342130
0.373410
0.403710
0.428150
0.448680
0.469210
0.486800
0.501470
0.514170
0.523950
0.530790
0.536660
0.540570
0.542520
0.543500
0.543500
0.541540
0.539590
0.535680
0.529810
0.523950
0.516130
0.506350
0.494620
0.481920
0.467250
0.452590
0.436950
0.423260
0.412510
0.399800
0.387100
0.375370
0.364610
0.355820
0.348000
0.341150
0.336270
0.332360
0.328450
0.325510
0.322580
0.320630
0.317690
0.313780
0.308900
0.304990
0.301080
0.298140
0.296190
0.293260
0.290320
0.287390
0.286410
0.284460
0.282500
0.279570
0.277610
0.274680
0.272730
0.270770
0.268820
0.265880
0.262950
0.261000
0.258060
0.257090
0.255130
0.253180
0.251220
0.248290
0.247310
0.246330
0.248290
0.255130
0.266860
0.286410
0.316720
0.350930
0.383190
0.419350
0.455520
0.491690
0.524930
0.554250
0.580650
0.602150
0.619750
0.634410
0.647120
0.656890
0.663730
0.667640
0.670580
0.673510
0.674490
0.674490
0.673510
0.670580
0.666670
0.661780
0.653960
0.645160
0.635390
0.624630
0.611930
0.597260
0.582600
0.566960
0.552300
0.537630
0.523950
0.512220
0.501470
0.491690
0.482890
0.476050
0.471160
0.465300
0.459430
0.454550
0.449660
0.444770
0.439880
0.435000
0.430110
0.425220
0.420330
0.416420
0.413490
0.409580
0.405670
0.401760
0.397850
0.392960
0.389050
0.385140
0.382210
0.378300
0.374390
0.371460
0.368520
0.366570
0.364610
0.361680
0.357770
0.354840
0.351910
0.348000
0.345060
0.342130
0.340180
0.340180
0.342130
0.347020
0.355820
0.369500
0.390030
0.416420
0.448680
0.483870
0.520040
0.556210
0.590420
0.620720
0.648090
0.668620
0.683280
0.697950
0.710650
0.722390
0.731180
0.738030
0.742910
0.746820
0.748780
0.749760
0.748780
0.745850
0.740960
0.736070
0.730210
0.721410
0.711630
0.699900
0.686220
0.670580
0.654940
0.638320
0.621700
0.606060
0.592380
0.579670
0.566960
0.555230
0.544480
0.534700
0.526880
0.519060
0.512220
0.506350
0.499510
0.493650
0.487780
0.482890
0.478010
0.472140
0.466280
0.459430
0.452590
0.445750
0.439880
0.434020
0.429130
0.425220
0.421310
0.418380
0.414470
0.410560
0.406650
0.401760
0.396870
0.391980
0.388070
0.384160
0.381230
0.377320
0.373410
0.370480
0.367550
0.364610
0.360700
0.357770
0.355820
0.356790
0.363640
0.374390
0.391980
0.415440
0.443790
0.472140
0.500490
0.531770
0.565000
0.595310
0.623660
0.648090
0.668620
0.686220
0.699900
0.710650
0.718480
0.724340
0.728250
0.730210
0.731180
0.732160
0.732160
0.730210
0.726300
0.721410
0.714570
0.704790
0.695010
0.682310
0.669600
0.656890
0.641250
0.625610
0.608990
0.593350
0.577710
0.564030
0.550340
0.538610
0.527860
0.518080
0.510260
0.504400
0.498530
0.492670
0.486800
0.480940
0.475070
0.468230
0.461390
0.456500
0.451610
0.446730
0.441840
0.437930
0.434020
0.430110
0.424240
0.419350
0.415440
0.410560
0.406650
0.402740
0.397850
0.393940
0.390030
0.385140
0.382210
0.379280
0.375370
0.371460
0.367550
0.363640
0.359730
0.355820
0.352880
0.349950
0.348000
0.348000
0.348970
0.353860
0.363640
0.379280
0.401760
0.430110
0.463340
0.499510
0.536660
0.570870
0.603130
0.631480
0.654940
0.672530
0.685240
0.696970
0.706740
0.715540
0.720430
0.724340
0.726300
0.728250
0.728250
0.727270
0.724340
0.719450
0.712610
0.704790
0.694040
0.681330
0.666670
0.650050
0.631480
0.612900
0.592380
0.571850
0.552300
0.533720
0.518080
0.505380
0.491690
0.478980
0.468230
0.457480
0.446730
0.436950
0.427170
0.418380
0.409580
0.401760
0.394920
0.389050
0.382210
0.376340
0.369500
0.362660
0.354840
0.348970
0.342130
0.336270
0.329420
0.323560
0.316720
0.311830
0.307920
0.303030
0.298140
0.293260
0.287390
0.281520
0.275660
0.270770
0.265880
0.261000
0.256110
0.253180
0.249270
0.245360
0.240470
0.235580
0.232650
0.232650
0.236560
0.246330
0.261970
0.286410
0.318670
0.355820
0.391010
0.425220
0.463340
0.502440
0.538610
0.569890
0.597260
0.619750
0.637340
0.652000
0.662760
0.670580
0.675460
0.677420
0.679370
0.679370
0.677420
0.674490
0.669600
0.662760
0.653960
0.643210
0.630500
0.614860
0.597260
0.579670
0.563050
0.544480
0.523950
0.505380
0.485830
0.469210
0.452590
0.437930
0.424240
0.413490
0.402740
0.394920
0.388070
0.381230
0.373410
0.366570
0.358750
0.350930
0.343110
0.336270
0.329420
0.323560
0.316720
0.311830
0.306940
0.302050
0.296190
0.290320
0.284460
0.279570
0.274680
0.269790
0.263930
0.258060
0.252200
0.246330
0.241450
0.237540
0.233630
0.229720
0.225810
0.221900
0.217990
0.213100
0.208210
0.203320
0.199410
0.195500
0.195500
0.198440
0.208210
0.223850
0.248290
0.279570
0.317690
0.360700
0.404690
0.449660
0.491690
0.528840
0.562070
0.586510
0.605080
0.622680
0.637340
0.649070
0.658850
0.666670
0.672530
0.676440
0.678400
0.678400
0.677420
0.674490
0.669600
0.662760
0.653960
0.643210
0.628540
0.612900
0.594330
0.573800
0.553270
0.532750
0.512220
0.492670
0.476050
0.461390
0.446730
0.433040
0.420330
0.408600
0.397850
0.388070
0.379280
0.371460
0.363640
0.356790
0.349950
0.345060
0.339200
0.332360
0.324540
0.317690
0.310850
0.304010
0.299120
0.293260
0.288370
0.283480
0.278590
0.274680
0.270770
0.266860
0.262950
0.259040
0.255130
0.251220
0.248290
0.244380
0.240470
0.236560
0.233630
0.231670
0.229720
0.226780
0.222870
0.219940
0.217990
0.217010
0.220920
0.229720
0.245360
0.268820
0.300100
0.339200
0.377320
0.415440
0.459430
0.503420
0.546430
0.585530
0.619750
0.649070
0.672530
0.693060
0.708700
0.721410
0.730210
0.735090
0.739980
0.743890
0.747800
0.749760
0.750730
0.748780
0.744870
0.738030
0.729230
0.716520
0.702830
0.689150
0.675460
0.658850
0.641250
0.622680
0.605080
0.588470
0.571850
0.556210
0.541540
0.528840
0.516130
0.505380
0.495600
0.487780
0.479960
0.475070
0.472140
0.473120
0.478010
0.484850
0.494620
0.505380
0.516130
0.525900
0.533720
0.540570
0.548390
0.556210
0.565000
0.572830
0.578690
0.581620
0.578690
0.570870
0.557180
0.539590
0.521020
0.501470
0.478010
0.452590
0.425220
0.397850
0.369500
0.343110
0.317690
0.295210
0.273700
0.256110
0.242420
0.233630
0.230690
0.231670
0.240470
0.257090
0.282500
0.314760
0.352880
0.393940
0.435970
0.478010
0.517110
0.547410
0.572830
0.597260
0.619750
0.638320
0.653960
0.665690
0.675460
0.682310
0.687190
0.689150
0.689150
0.687190
0.683280
0.677420
0.669600
0.660800
0.650050
0.637340
0.622680
0.607040
0.588470
0.569890
0.550340
0.530790
0.514170
0.499510
0.483870
0.470190
0.457480
0.446730
0.436950
0.429130
0.422290
0.415440
0.408600
0.402740
0.397850
0.393940
0.389050
0.384160
0.380250
0.375370
0.371460
0.367550
0.362660
0.358750
0.353860
0.349950
0.346040
0.343110
0.341150
0.338220
0.336270
0.332360
0.329420
0.326490
0.323560
0.320630
0.317690
0.314760
0.311830
0.309870
0.308900
0.306940
0.304990
0.302050
0.298140
0.295210
0.292280
0.292280
0.296190
0.305960
0.321600
0.344090
0.370480
0.399800
0.435970
0.477030
0.520040
0.562070
0.600200
0.635390
0.664710
0.691100
0.712610
0.730210
0.741940
0.749760
0.757580
0.763440
0.767350
0.769310
0.769310
0.768330
0.765400
0.761490
0.754640
0.745850
0.734120
0.721410
0.707720
0.691100
0.673510
0.655910
0.636360
0.617790
0.599220
0.582600
0.565980
0.551320
0.537630
0.526880
0.517110
0.507330
0.497560
0.489740
0.480940
0.473120
0.465300
0.458460
0.451610
0.444770
0.436950
0.430110
0.424240
0.419350
0.413490
0.407620
0.400780
0.394920
0.389050
0.383190
0.378300
0.373410
0.368520
0.362660
0.357770
0.353860
0.349950
0.346040
0.341150
0.337240
0.332360
0.328450
0.323560
0.320630
0.315740
0.311830
0.307920
0.305960
0.304010
0.303030
0.305960
0.311830
0.324540
0.345060
0.372430
0.406650
0.446730
0.488760
0.531770
0.568910
0.600200
0.632450
0.661780
0.687190
0.709680
0.727270
0.741940
0.752690
0.761490
0.767350
0.770280
0.772240
0.770280
0.767350
0.763440
0.757580
0.750730
0.741940
0.731180
0.717500
0.701860
0.684260
0.665690
0.646140
0.627570
0.610950
0.593350
0.574780
0.557180
0.541540
0.525900
0.513200
0.500490
0.490710
0.481920
0.473120
0.465300
0.458460
0.452590
0.446730
0.439880
0.433040
0.427170
0.420330
0.413490
0.406650
0.399800
0.393940
0.388070
0.383190
0.379280
0.374390
0.368520
0.362660
0.357770
0.351910
0.347020
0.342130
0.338220
0.334310
0.330400
0.326490
0.324540
0.321600
0.318670
0.313780
0.309870
0.304990
0.301080
0.297170
0.293260
0.290320
0.291300
0.295210
0.302050
0.313780
0.332360
0.357770
0.390030
0.425220
0.463340
0.501470
0.538610
0.571850
0.601170
0.626590
0.645160
0.658850
0.670580
0.681330
0.689150
0.695990
0.699900
0.702830
0.704790
0.704790
0.701860
0.697950
0.691100
0.684260
0.675460
0.664710
0.651030
0.636360
0.619750
0.601170
0.582600
0.564030
0.545450
0.526880
0.510260
0.496580
0.484850
0.474100
0.463340
0.453570
0.444770
0.435970
0.428150
0.420330
0.412510
0.405670
0.398830
0.392960
0.388070
0.384160
0.379280
0.373410
0.367550
0.361680
0.355820
0.349950
0.343110
0.337240
0.332360
0.327470
0.324540
0.324540
0.325510
0.329420
0.336270
0.344090
0.352880
0.360700
0.366570
0.370480
0.372430
0.373410
0.373410
0.372430
0.371460
0.369500
0.367550
0.365590
0.363640
0.364610
0.367550
0.375370
0.390030
0.411530
0.437930
0.465300
0.492670
0.524930
0.558160
0.590420
0.620720
0.648090
0.672530
0.694040
0.711630
0.725320
0.736070
0.743890
0.746820
0.745850
0.744870
0.740960
0.737050
0.730210
0.721410
0.711630
0.698920
0.683280
0.666670
0.647120
0.628540
0.608990
0.587490
0.564030
0.539590
0.515150
0.492670
0.470190
0.449660
0.429130
0.411530
0.394920
0.380250
0.369500
0.360700
0.351910
0.342130
0.333330
0.324540
0.315740
0.307920
0.300100
0.293260
0.286410
0.280550
0.276640
0.273700
0.268820
0.264910
0.260020
0.256110
0.252200
0.248290
0.244380
0.242420
0.239490
0.236560
0.234600
0.233630
0.233630
0.233630
0.232650
0.231670
0.230690
0.228740
0.227760
0.225810
0.223850
0.222870
0.223850
0.226780
0.232650
0.242420
0.258060
0.280550
0.309870
0.345060
0.385140
0.428150
0.471160
0.513200
0.552300
0.587490
0.614860
0.637340
0.657870
0.677420
0.693060
0.706740
0.717500
0.727270
0.734120
0.738030
0.740960
0.740960
0.739980
0.737050
0.732160
0.726300
0.718480
0.708700
0.695990
0.682310
0.667640
0.651030
0.633430
0.614860
0.596290
0.580650
0.565980
0.550340
0.536660
0.524930
0.514170
0.504400
0.495600
0.487780
0.480940
0.473120
0.465300
0.463340
0.463340
0.460410
0.456500
0.451610
0.446730
0.441840
0.436950
0.431090
0.425220
0.420330
0.414470
0.409580
0.405670
0.402740
0.399800
0.395890
0.391980
0.388070
0.384160
0.381230
0.377320
0.373410
0.369500
0.365590
0.362660
0.360700
0.357770
0.354840
0.351910
0.348970
0.348000
0.348000
0.350930
0.357770
0.371460
0.391980
0.414470
0.439880
0.472140
0.509290
0.548390
0.586510
0.622680
0.654940
0.683280
0.707720
0.727270
0.744870
0.758550
0.767350
0.773220
0.778100
0.782010
0.784950
0.784950
0.784950
0.782010
0.779080
0.776150
0.771260
0.767350
0.761490
0.754640
0.746820
0.737050
0.727270
0.716520
0.705770
0.695990
0.687190
0.679370
0.672530
0.665690
0.659820
0.653960
0.647120
0.641250
0.635390
0.630500
0.625610
0.621700
0.617790
0.612900
0.608020
0.602150
0.595310
0.588470
0.581620
0.572830
0.564030
0.553270
0.542520
0.531770
0.521990
0.512220
0.504400
0.496580
0.488760
0.481920
0.476050
0.470190
0.463340
0.455520
0.447700
0.437930
0.427170
0.416420
0.405670
0.393940
0.382210
0.370480
0.361680
0.353860
0.346040
0.340180
0.337240
0.338220
0.346040
0.360700
0.382210
0.408600
0.438910
0.472140
0.506350
0.534700
0.559140
0.583580
0.605080
0.624630
0.640270
0.652980
0.663730
0.671550
0.677420
0.681330
0.683280
0.682310
0.680350
0.678400
0.674490
0.669600
0.662760
0.653960
0.643210
0.631480
0.617790
0.602150
0.585530
0.568910
0.553270
0.538610
0.523950
0.509290
0.494620
0.481920
0.470190
0.460410
0.450640
0.442820
0.435970
0.430110
0.425220
0.420330
0.416420
0.411530
0.406650
0.401760
0.397850
0.392960
0.389050
0.386120
0.385140
0.386120
0.388070
0.391010
0.395890
0.401760
0.409580
0.418380
0.427170
0.436950
0.445750
0.454550
0.461390
0.467250
0.471160
0.473120
0.473120
0.472140
0.469210
0.463340
0.456500
0.447700
0.438910
0.430110
0.423260
0.418380
0.417400
0.420330
0.427170
0.437930
0.455520
0.479960
0.509290
0.541540
0.575760
0.609970
0.642230
0.672530
0.698920
0.721410
0.738030
0.749760
0.760510
0.768330
0.775170
0.778100
0.780060
0.778100
0.774190
0.768330
0.761490
0.751710
0.739980
0.727270
0.713590
0.697950
0.679370
0.657870
0.635390
0.610950
0.587490
0.563050
0.540570
0.519060
0.498530
0.481920
0.467250
0.452590
0.437930
0.424240
0.412510
0.401760
0.391010
0.382210
0.374390
0.366570
0.358750
0.350930
0.345060
0.340180
0.335290
0.329420
0.323560
0.317690
0.297170
0.269790
0.253180
0.243400
0.236560
0.231670
0.228740
0.226780
0.223850
0.220920
0.217010
0.214080
0.211140
0.209190
0.206260
0.204300
0.202350
0.200390
0.199410
0.198440
0.196480
0.194530
0.193550
0.192570
0.193550
0.199410
0.210170
0.227760
0.253180
0.285430
0.323560
0.360700
0.395890
0.435970
0.477030
0.516130
0.551320
0.581620
0.607040
0.628540
0.646140
0.659820
0.669600
0.675460
0.678400
0.680350
0.681330
0.681330
0.679370
0.675460
0.669600
0.660800
0.650050
0.637340
0.621700
0.604110
0.587490
0.570870
0.552300
0.532750
0.513200
0.493650
0.476050
0.459430
0.444770
0.432060
0.419350
0.408600
0.399800
0.392960
0.385140
0.377320
0.370480
0.362660
0.355820
0.348970
0.343110
0.337240
0.331380
0.325510
0.319650
0.314760
0.310850
0.305960
0.301080
0.296190
0.291300
0.286410
0.281520
0.275660
0.271750
0.268820
0.266860
0.267840
0.270770
0.275660
0.282500
0.290320
0.299120
0.306940
0.314760
0.321600
0.326490
0.330400
0.334310
0.340180
0.347020
0.356790
0.371460
0.391010
0.416420
0.447700
0.484850
0.525900
0.568910
0.612900
0.655910
0.695990
0.728250
0.754640
0.781040
0.805470
0.826980
0.844570
0.860220
0.871950
0.880740
0.886610
0.889540
0.889540
0.887590
0.881720
0.872920
0.862170
0.847510
0.830890
0.809380
0.785920
0.759530
0.730210
0.698920
0.665690
0.632450
0.603130
0.576740
0.547410
0.519060
0.491690
0.466280
0.442820
0.421310
0.401760
0.383190
0.365590
0.348970
0.333330
0.321600
0.310850
0.299120
0.286410
0.273700
0.261970
0.250240
0.239490
0.229720
0.219940
0.211140
0.202350
0.197460
0.193550
0.187680
0.182800
0.177910
0.173020
0.168130
0.163250
0.159340
0.155430
0.152490
0.149560
0.146630
0.146630
0.147610
0.146630
0.145650
0.144670
0.143700
0.142720
0.143700
0.146630
0.153470
0.167160
0.187680
0.212120
0.241450
0.278590
0.322580
0.369500
0.417400
0.463340
0.506350
0.545450
0.579670
0.609970
0.634410
0.655910
0.670580
0.681330
0.692080
0.700880
0.706740
0.711630
0.714570
0.715540
0.713590
0.710650
0.704790
0.696970
0.687190
0.676440
0.662760
0.647120
0.628540
0.608990
0.589440
0.568910
0.549360
0.529810
0.512220
0.494620
0.481920
0.470190
0.458460
0.448680
0.438910
0.431090
0.423260
0.414470
0.405670
0.399800
0.393940
0.388070
0.382210
0.377320
0.372430
0.367550
0.362660
0.356790
0.350930
0.346040
0.340180
0.334310
0.328450
0.322580
0.317690
0.313780
0.323560
0.340180
0.347020
0.348970
0.348970
0.348000
0.346040
0.344090
0.342130
0.340180
0.337240
0.334310
0.332360
0.331380
0.330400
0.329420
0.330400
0.334310
0.341150
0.352880
0.369500
0.391980
0.418380
0.448680
0.475070
0.500490
0.528840
0.555230
0.580650
0.604110
0.622680
0.639300
0.652980
0.663730
0.671550
0.678400
0.682310
0.684260
0.684260
0.683280
0.682310
0.679370
0.674490
0.669600
0.661780
0.653960
0.643210
0.632450
0.619750
0.607040
0.594330
0.579670
0.565000
0.550340
0.536660
0.522970
0.510260
0.499510
0.489740
0.479960
0.472140
0.465300
0.459430
0.454550
0.449660
0.443790
0.438910
0.434020
0.429130
0.423260
0.419350
0.414470
0.410560
0.406650
0.402740
0.399800
0.395890
0.392960
0.389050
0.385140
0.380250
0.376340
0.372430
0.369500
0.367550
0.366570
0.367550
0.370480
0.374390
0.380250
0.387100
0.394920
0.402740
0.409580
0.415440
0.420330
0.424240
0.428150
0.432060
0.435970
0.440860
0.448680
0.461390
0.478980
0.501470
0.527860
0.556210
0.587490
0.618770
0.654940
0.685240
0.705770
0.721410
0.734120
0.746820
0.757580
0.766370
0.773220
0.778100
0.780060
0.780060
0.777130
0.773220
0.767350
0.759530
0.750730
0.739980
0.727270
0.712610
0.696970
0.678400
0.658850
0.637340
0.614860
0.592380
0.569890
0.548390
0.528840
0.512220
0.494620
0.478010
0.462370
0.447700
0.434020
0.421310
0.410560
0.398830
0.389050
0.379280
0.371460
0.363640
0.356790
0.348970
0.342130
0.334310
0.327470
0.320630
0.313780
0.307920
0.303030
0.298140
0.294230
0.291300
0.289350
0.286410
0.283480
0.280550
0.277610
0.275660
0.272730
0.270770
0.268820
0.266860
0.264910
0.263930
0.262950
0.261000
0.259040
0.257090
0.256110
0.255130
0.257090
0.261000
0.269790
0.283480
0.302050
0.325510
0.350930
0.376340
0.407620
0.439880
0.472140
0.503420
0.530790
0.555230
0.574780
0.592380
0.606060
0.616810
0.623660
0.628540
0.632450
0.634410
0.636360
0.636360
0.634410
0.631480
0.626590
0.619750
0.611930
0.603130
0.593350
0.583580
0.570870
0.558160
0.544480
0.529810
0.516130
0.502440
0.488760
0.476050
0.464320
0.454550
0.444770
0.437930
0.431090
0.425220
0.418380
0.412510
0.406650
0.400780
0.395890
0.390030
0.385140
0.380250
0.376340
0.372430
0.368520
0.363640
0.360700
0.356790
0.352880
0.349950
0.346040
0.342130
0.339200
0.335290
0.331380
0.328450
0.325510
0.323560
0.321600
0.318670
0.315740
0.312810
0.310850
0.306940
0.302050
0.298140
0.295210
0.292280
0.289350
0.288370
0.287390
0.287390
0.290320
0.296190
0.307920
0.324540
0.346040
0.372430
0.401760
0.432060
0.463340
0.488760
0.510260
0.531770
0.552300
0.568910
0.583580
0.595310
0.604110
0.610950
0.616810
0.621700
0.625610
0.628540
0.630500
0.633430
0.636360
0.638320
0.639300
0.637340
0.635390
0.631480
0.625610
0.618770
0.610950
0.602150
0.594330
0.585530
0.575760
0.565000
0.556210
0.546430
0.538610
0.531770
0.526880
0.521990
0.518080
0.514170
0.511240
0.507330
0.503420
0.499510
0.495600
0.490710
0.485830
0.479960
0.475070
0.468230
0.462370
0.455520
0.448680
0.441840
0.435000
0.427170
0.418380
0.408600
0.397850
0.387100
0.376340
0.366570
0.355820
0.346040
0.336270
0.327470
0.320630
0.312810
0.304010
0.296190
0.287390
0.278590
0.270770
0.262950
0.256110
0.250240
0.248290
0.250240
0.255130
0.264910
0.279570
0.300100
0.324540
0.351910
0.380250
0.407620
0.434020
0.458460
0.478980
0.496580
0.510260
0.520040
0.528840
0.535680
0.542520
0.547410
0.550340
0.551320
0.550340
0.549360
0.546430
0.543500
0.537630
0.531770
0.525900
0.517110
0.506350
0.494620
0.481920
0.468230
0.452590
0.437930
0.424240
0.410560
0.398830
0.389050
0.381230
0.373410
0.366570
0.359730
0.354840
0.349950
0.345060
0.341150
0.338220
0.333330
0.329420
0.325510
0.322580
0.320630
0.317690
0.313780
0.310850
0.308900
0.305960
0.304010
0.302050
0.299120
0.297170
0.294230
0.292280
0.291300
0.289350
0.287390
0.286410
0.284460
0.283480
0.282500
0.280550
0.279570
0.277610
0.276640
0.274680
0.274680
0.272730
0.271750
0.269790
0.268820
0.269790
0.272730
0.280550
0.292280
0.309870
0.332360
0.360700
0.389050
0.417400
0.450640
0.486800
0.522970
0.557180
0.590420
0.619750
0.647120
0.671550
0.693060
0.711630
0.725320
0.736070
0.747800
0.758550
0.767350
0.774190
0.778100
0.779080
0.775170
0.767350
0.756600
0.741940
0.726300
0.709680
0.693060
0.674490
0.655910
0.636360
0.617790
0.600200
0.583580
0.567940
0.554250
0.542520
0.531770
0.522970
0.514170
0.506350
0.497560
0.489740
0.479960
0.471160
0.461390
0.451610
0.441840
0.431090
0.421310
0.410560
0.400780
0.392960
0.383190
0.373410
0.363640
0.353860
0.345060
0.334310
0.324540
0.317690
0.309870
0.302050
0.296190
0.291300
0.285430
0.279570
0.273700
0.267840
0.261970
0.256110
0.251220
0.247310
0.243400
0.240470
0.236560
0.233630
0.238510
0.246330
0.253180
0.261970
0.275660
0.293260
0.315740
0.342130
0.371460
0.408600
0.442820
0.462370
0.480940
0.501470
0.520040
0.537630
0.552300
0.564030
0.573800
0.581620
0.586510
0.591400
0.594330
0.596290
0.595310
0.593350
0.589440
0.586510
0.582600
0.575760
0.567940
0.559140
0.548390
0.535680
0.522970
0.509290
0.497560
0.485830
0.474100
0.462370
0.451610
0.439880
0.428150
0.420330
0.415440
0.409580
0.404690
0.400780
0.397850
0.395890
0.394920
0.393940
0.393940
0.394920
0.396870
0.399800
0.406650
0.415440
0.421310
0.425220
0.430110
0.434020
0.435970
0.435000
0.431090
0.425220
0.419350
0.412510
0.403710
0.394920
0.383190
0.371460
0.361680
0.354840
0.349950
0.346040
0.343110
0.339200
0.336270
0.335290
0.333330
0.330400
0.329420
0.329420
0.331380
0.335290
0.343110
0.355820
0.373410
0.395890
0.420330
0.447700
0.475070
0.495600
0.517110
0.543500
0.564030
0.579670
0.590420
0.597260
0.603130
0.607040
0.609970
0.610950
0.610950
0.609970
0.607040
0.603130
0.597260
0.591400
0.583580
0.575760
0.566960
0.556210
0.543500
0.530790
0.516130
0.501470
0.486800
0.473120
0.459430
0.447700
0.435970
0.427170
0.419350
0.412510
0.405670
0.398830
0.392960
0.388070
0.382210
0.377320
0.372430
0.368520
0.364610
0.361680
0.359730
0.356790
0.353860
0.349950
0.347020
0.344090
0.341150
0.338220
0.336270
0.333330
0.331380
0.329420
0.328450
0.326490
0.324540
0.322580
0.319650
0.317690
0.315740
0.313780
0.311830
0.309870
0.306940
0.304990
0.304010
0.303030
0.301080
0.300100
0.298140
0.297170
0.296190
0.297170
0.300100
0.306940
0.318670
0.335290
0.353860
0.373410
0.398830
0.428150
0.458460
0.489740
0.519060
0.547410
0.573800
0.597260
0.619750
0.639300
0.655910
0.668620
0.678400
0.689150
0.697950
0.704790
0.710650
0.713590
0.715540
0.716520
0.715540
0.711630
0.706740
0.699900
0.692080
0.681330
0.669600
0.656890
0.642230
0.627570
0.612900
0.597260
0.582600
0.568910
0.556210
0.543500
0.532750
0.522970
0.512220
0.501470
0.489740
0.478980
0.466280
0.454550
0.443790
0.432060
0.421310
0.409580
0.399800
0.391010
0.381230
0.371460
0.361680
0.351910
0.343110
0.334310
0.325510
0.317690
0.309870
0.302050
0.295210
0.290320
0.285430
0.279570
0.274680
0.269790
0.264910
0.260020
0.256110
0.252200
0.248290
0.244380
0.240470
0.238510
0.236560
0.233630
0.232650
0.232650
0.236560
0.243400
0.256110
0.279570
0.309870
0.340180
0.371460
0.402740
0.430110
0.453570
0.477030
0.499510
0.520040
0.536660
0.551320
0.562070
0.569890
0.576740
0.580650
0.583580
0.584560
0.583580
0.582600
0.579670
0.576740
0.571850
0.565980
0.558160
0.549360
0.538610
0.526880
0.514170
0.501470
0.488760
0.478010
0.465300
0.453570
0.441840
0.431090
0.421310
0.412510
0.405670
0.399800
0.393940
0.389050
0.386120
0.382210
0.379280
0.375370
0.371460
0.367550
0.363640
0.359730
0.356790
0.353860
0.351910
0.350930
0.350930
0.351910
0.353860
0.356790
0.359730
0.362660
0.366570
0.370480
0.376340
0.382210
0.388070
0.394920
0.399800
0.404690
0.407620
0.408600
0.407620
0.404690
0.399800
0.393940
0.386120
0.378300
0.369500
0.362660
0.356790
0.353860
0.353860
0.358750
0.368520
0.383190
0.404690
0.431090
0.460410
0.491690
0.522970
0.552300
0.579670
0.603130
0.620720
0.633430
0.645160
0.653960
0.660800
0.664710
0.666670
0.667640
0.666670
0.663730
0.659820
0.653960
0.647120
0.639300
0.630500
0.619750
0.608020
0.594330
0.579670
0.564030
0.547410
0.529810
0.512220
0.495600
0.479960
0.466280
0.455520
0.443790
0.433040
0.423260
0.414470
0.406650
0.399800
0.392960
0.387100
0.381230
0.376340
0.372430
0.369500
0.365590
0.361680
0.357770
0.353860
0.349950
0.347020
0.343110
0.340180
0.337240
0.334310
0.331380
0.330400
0.329420
0.327470
0.325510
0.323560
0.321600
0.320630
0.319650
0.317690
0.316720
0.315740
0.314760
0.313780
0.313780
0.312810
0.311830
0.309870
0.307920
0.306940
0.305960
0.305960
0.309870
0.317690
0.329420
0.347020
0.366570
0.388070
0.415440
0.445750
0.476050
0.506350
0.534700
0.559140
0.580650
0.599220
0.614860
0.628540
0.637340
0.646140
0.654940
0.664710
0.674490
0.684260
0.693060
0.700880
0.707720
0.711630
0.713590
0.712610
0.708700
0.702830
0.695010
0.686220
0.675460
0.665690
0.654940
0.644180
0.633430
0.623660
0.613880
0.604110
0.595310
0.586510
0.578690
0.570870
0.563050
0.556210
0.548390
0.540570
0.532750
0.524930
0.517110
0.508310
0.500490
0.491690
0.483870
0.477030
0.468230
0.459430
0.450640
0.439880
0.430110
0.419350
0.409580
0.399800
0.390030
0.381230
0.373410
0.366570
0.359730
0.351910
0.344090
0.336270
0.328450
0.321600
0.314760
0.307920
0.301080
0.295210
0.289350
0.285430
0.282500
0.279570
0.276640
0.276640
0.279570
0.286410
0.298140
0.315740
0.338220
0.364610
0.393940
0.419350
0.443790
0.471160
0.499510
0.524930
0.547410
0.565980
0.581620
0.593350
0.603130
0.609970
0.615840
0.618770
0.619750
0.618770
0.617790
0.614860
0.610950
0.606060
0.599220
0.591400
0.581620
0.569890
0.557180
0.543500
0.529810
0.517110
0.503420
0.488760
0.475070
0.461390
0.449660
0.438910
0.429130
0.420330
0.412510
0.405670
0.398830
0.393940
0.390030
0.385140
0.381230
0.377320
0.373410
0.368520
0.364610
0.360700
0.357770
0.353860
0.349950
0.347020
0.345060
0.342130
0.339200
0.336270
0.332360
0.329420
0.326490
0.324540
0.322580
0.319650
0.317690
0.314760
0.312810
0.311830
0.309870
0.307920
0.305960
0.304010
0.302050
0.299120
0.297170
0.295210
0.293260
0.292280
0.294230
0.298140
0.304990
0.317690
0.335290
0.358750
0.387100
0.419350
0.453570
0.487780
0.521020
0.551320
0.574780
0.593350
0.610950
0.626590
0.639300
0.650050
0.657870
0.663730
0.667640
0.668620
0.669600
0.667640
0.664710
0.659820
0.653960
0.646140
0.638320
0.627570
0.615840
0.603130
0.588470
0.573800
0.557180
0.541540
0.524930
0.511240
0.498530
0.485830
0.474100
0.462370
0.452590
0.443790
0.435970
0.429130
0.422290
0.415440
0.408600
0.402740
0.397850
0.392960
0.389050
0.384160
0.381230
0.379280
0.378300
0.379280
0.381230
0.386120
0.391010
0.397850
0.403710
0.410560
0.416420
0.422290
0.429130
0.435000
0.439880
0.445750
0.450640
0.455520
0.459430
0.462370
0.463340
0.463340
0.460410
0.455520
0.447700
0.437930
0.426200
0.414470
0.402740
0.391980
0.383190
0.379280
0.379280
0.384160
0.393940
0.410560
0.433040
0.461390
0.491690
0.523950
0.555230
0.583580
0.608990
0.629520
0.646140
0.658850
0.666670
0.669600
0.671550
0.671550
0.669600
0.665690
0.659820
0.652000
0.643210
0.632450
0.620720
0.607040
0.593350
0.579670
0.563050
0.544480
0.525900
0.505380
0.484850
0.463340
0.443790
0.425220
0.407620
0.391010
0.377320
0.365590
0.356790
0.348000
0.340180
0.332360
0.325510
0.318670
0.312810
0.306940
0.301080
0.295210
0.289350
0.286410
0.283480
0.280550
0.277610
0.274680
0.270770
0.267840
0.264910
0.261970
0.260020
0.257090
0.255130
0.253180
0.252200
0.252200
0.251220
0.249270
0.248290
0.246330
0.245360
0.243400
0.242420
0.241450
0.240470
0.240470
0.240470
0.240470
0.240470
0.239490
0.239490
0.240470
0.243400
0.251220
0.262950
0.279570
0.303030
0.331380
0.364610
0.394920
0.424240
0.455520
0.487780
0.517110
0.542520
0.565000
0.582600
0.613880
0.651030
0.673510
0.686220
0.693060
0.695990
0.696970
0.696970
0.695010
0.691100
0.686220
0.679370
0.670580
0.659820
0.648090
0.633430
0.616810
0.601170
0.585530
0.568910
0.551320
0.533720
0.517110
0.500490
0.485830
0.472140
0.460410
0.449660
0.440860
0.434020
0.429130
0.423260
0.417400
0.412510
0.407620
0.401760
0.396870
0.391980
0.387100
0.381230
0.376340
0.372430
0.369500
0.367550
0.365590
0.362660
0.359730
0.355820
0.351910
0.348970
0.345060
0.342130
0.339200
0.337240
0.336270
0.334310
0.332360
0.330400
0.328450
0.325510
0.323560
0.320630
0.318670
0.316720
0.313780
0.312810
0.311830
0.313780
0.316720
0.323560
0.335290
0.352880
0.377320
0.408600
0.444770
0.483870
0.523950
0.563050
0.600200
0.629520
0.652980
0.676440
0.696970
0.713590
0.727270
0.738030
0.745850
0.751710
0.755620
0.757580
0.758550
0.756600
0.752690
0.747800
0.741940
0.734120
0.724340
0.712610
0.698920
0.684260
0.667640
0.651030
0.632450
0.613880
0.597260
0.581620
0.565000
0.549360
0.534700
0.521020
0.509290
0.498530
0.489740
0.481920
0.474100
0.467250
0.461390
0.456500
0.451610
0.446730
0.444770
0.444770
0.446730
0.452590
0.460410
0.471160
0.481920
0.492670
0.502440
0.509290
0.515150
0.520040
0.522970
0.525900
0.526880
0.527860
0.526880
0.525900
0.522970
0.519060
0.514170
0.509290
0.504400
0.499510
0.495600
0.491690
0.487780
0.485830
0.482890
0.480940
0.479960
0.479960
0.483870
0.492670
0.503420
0.517110
0.538610
0.565000
0.595310
0.627570
0.659820
0.689150
0.714570
0.737050
0.753670
0.765400
0.772240
0.774190
0.774190
0.772240
0.767350
0.761490
0.753670
0.743890
0.733140
0.721410
0.707720
0.692080
0.676440
0.660800
0.644180
0.626590
0.606060
0.584560
0.562070
0.539590
0.517110
0.494620
0.473120
0.453570
0.435970
0.421310
0.409580
0.398830
0.388070
0.378300
0.370480
0.362660
0.355820
0.348970
0.343110
0.338220
0.332360
0.328450
0.324540
0.322580
0.319650
0.316720
0.312810
0.309870
0.306940
0.304010
0.301080
0.298140
0.296190
0.294230
0.293260
0.293260
0.292280
0.291300
0.290320
0.289350
0.287390
0.286410
0.284460
0.283480
0.281520
0.280550
0.278590
0.277610
0.277610
0.277610
0.276640
0.276640
0.279570
0.284460
0.295210
0.311830
0.335290
0.365590
0.400780
0.434020
0.466280
0.503420
0.540570
0.575760
0.608020
0.635390
0.658850
0.678400
0.693060
0.705770
0.714570
0.720430
0.724340
0.725320
0.717500
0.705770
0.697950
0.691100
0.683280
0.675460
0.665690
0.653960
0.640270
0.625610
0.611930
0.597260
0.580650
0.563050
0.545450
0.528840
0.512220
0.497560
0.484850
0.473120
0.462370
0.453570
0.444770
0.437930
0.432060
0.426200
0.420330
0.414470
0.409580
0.403710
0.397850
0.391980
0.387100
0.381230
0.376340
0.372430
0.368520
0.364610
0.360700
0.355820
0.351910
0.348000
0.345060
0.341150
0.338220
0.335290
0.331380
0.328450
0.326490
0.324540
0.321600
0.318670
0.316720
0.314760
0.312810
0.309870
0.306940
0.304010
0.301080
0.298140
0.297170
0.298140
0.301080
0.308900
0.322580
0.342130
0.367550
0.398830
0.435000
0.472140
0.510260
0.546430
0.575760
0.599220
0.622680
0.644180
0.661780
0.676440
0.687190
0.695990
0.701860
0.704790
0.706740
0.707720
0.705770
0.701860
0.696970
0.690130
0.682310
0.673510
0.661780
0.649070
0.634410
0.617790
0.601170
0.582600
0.564030
0.548390
0.533720
0.519060
0.504400
0.489740
0.477030
0.466280
0.456500
0.447700
0.439880
0.432060
0.424240
0.416420
0.410560
0.405670
0.399800
0.392960
0.387100
0.382210
0.377320
0.372430
0.367550
0.362660
0.358750
0.353860
0.349950
0.347020
0.343110
0.339200
0.335290
0.331380
0.327470
0.323560
0.320630
0.317690
0.314760
0.311830
0.308900
0.305960
0.304010
0.302050
0.298140
0.295210
0.292280
0.288370
0.286410
0.285430
0.287390
0.294230
0.306940
0.321600
0.341150
0.367550
0.399800
0.435970
0.473120
0.509290
0.543500
0.574780
0.601170
0.623660
0.642230
0.656890
0.666670
0.672530
0.678400
0.681330
0.683280
0.684260
0.682310
0.679370
0.674490
0.667640
0.658850
0.649070
0.638320
0.626590
0.612900
0.598240
0.580650
0.562070
0.543500
0.524930
0.507330
0.490710
0.475070
0.461390
0.449660
0.439880
0.432060
0.424240
0.417400
0.410560
0.403710
0.396870
0.390030
0.384160
0.378300
0.372430
0.367550
0.362660
0.359730
0.355820
0.350930
0.347020
0.342130
0.337240
0.333330
0.328450
0.324540
0.320630
0.316720
0.313780
0.311830
0.310850
0.307920
0.304990
0.302050
0.299120
0.295210
0.292280
0.289350
0.286410
0.283480
0.280550
0.278590
0.277610
0.275660
0.275660
0.277610
0.284460
0.296190
0.314760
0.339200
0.370480
0.406650
0.446730
0.490710
0.528840
0.564030
0.603130
0.642230
0.680350
0.716520
0.747800
0.776150
0.799610
0.817200
0.830890
0.839690
0.841640
0.838710
0.833820
0.826980
0.818180
0.808410
0.798630
0.786900
0.775170
0.740960
0.695010
0.663730
0.641250
0.622680
0.604110
0.586510
0.569890
0.553270
0.538610
0.524930
0.513200
0.502440
0.491690
0.480940
0.471160
0.461390
0.452590
0.442820
0.431090
0.419350
0.406650
0.394920
0.382210
0.369500
0.356790
0.345060
0.332360
0.322580
0.313780
0.304010
0.294230
0.284460
0.274680
0.264910
0.256110
0.247310
0.239490
0.231670
0.224830
0.217990
0.213100
0.209190
0.204300
0.199410
0.194530
0.188660
0.183770
0.179860
0.175950
0.172040
0.172040
0.174000
0.179860
0.189640
0.205280
0.225810
0.252200
0.282500
0.316720
0.350930
0.383190
0.414470
0.441840
0.466280
0.487780
0.503420
0.515150
0.525900
0.534700
0.542520
0.549360
0.553270
0.556210
0.557180
0.557180
0.555230
0.552300
0.548390
0.543500
0.536660
0.527860
0.518080
0.507330
0.495600
0.481920
0.468230
0.454550
0.440860
0.427170
0.415440
0.404690
0.396870
0.388070
0.380250
0.374390
0.367550
0.362660
0.357770
0.354840
0.352880
0.352880
0.354840
0.358750
0.363640
0.369500
0.376340
0.383190
0.389050
0.394920
0.400780
0.404690
0.408600
0.411530
0.413490
0.414470
0.414470
0.413490
0.410560
0.406650
0.400780
0.392960
0.385140
0.375370
0.365590
0.356790
0.348000
0.340180
0.334310
0.329420
0.324540
0.319650
0.316720
0.315740
0.317690
0.322580
0.332360
0.347020
0.367550
0.391980
0.421310
0.447700
0.473120
0.501470
0.529810
0.555230
0.577710
0.595310
0.609970
0.620720
0.627570
0.632450
0.634410
0.633430
0.631480
0.627570
0.622680
0.616810
0.609970
0.601170
0.592380
0.580650
0.568910
0.555230
0.539590
0.523950
0.508310
0.493650
0.478010
0.460410
0.443790
0.428150
0.413490
0.400780
0.389050
0.379280
0.370480
0.362660
0.355820
0.350930
0.346040
0.341150
0.335290
0.330400
0.326490
0.322580
0.317690
0.313780
0.310850
0.306940
0.304010
0.302050
0.301080
0.299120
0.296190
0.294230
0.291300
0.289350
0.287390
0.284460
0.282500
0.280550
0.278590
0.277610
0.276640
0.275660
0.273700
0.272730
0.270770
0.269790
0.267840
0.266860
0.265880
0.263930
0.262950
0.262950
0.263930
0.267840
0.273700
0.285430
0.301080
0.322580
0.348970
0.380250
0.415440
0.451610
0.488760
0.524930
0.555230
0.580650
0.608020
0.634410
0.658850
0.681330
0.700880
0.716520
0.727270
0.734120
0.737050
0.735090
0.730210
0.722390
0.712610
0.699900
0.685240
0.669600
0.652000
0.633430
0.614860
0.596290
0.576740
0.559140
0.541540
0.526880
0.514170
0.501470
0.500490
0.506350
0.505380
0.501470
0.496580
0.489740
0.483870
0.477030
0.470190
0.463340
0.457480
0.451610
0.444770
0.436950
0.429130
0.421310
0.414470
0.407620
0.400780
0.393940
0.387100
0.380250
0.374390
0.369500
0.364610
0.359730
0.353860
0.348970
0.344090
0.339200
0.334310
0.330400
0.326490
0.323560
0.320630
0.319650
0.316720
0.314760
0.311830
0.308900
0.305960
0.304010
0.302050
0.303030
0.305960
0.312810
0.324540
0.338220
0.353860
0.376340
0.401760
0.429130
0.457480
0.484850
0.509290
0.531770
0.550340
0.566960
0.579670
0.590420
0.597260
0.603130
0.608020
0.610950
0.612900
0.613880
0.612900
0.610950
0.608020
0.604110
0.598240
0.592380
0.584560
0.576740
0.566960
0.555230
0.542520
0.529810
0.517110
0.504400
0.492670
0.480940
0.470190
0.461390
0.453570
0.447700
0.441840
0.435970
0.431090
0.426200
0.422290
0.417400
0.412510
0.408600
0.404690
0.399800
0.395890
0.391980
0.390030
0.386120
0.384160
0.382210
0.382210
0.383190
0.387100
0.391980
0.398830
0.407620
0.416420
0.424240
0.432060
0.439880
0.445750
0.451610
0.454550
0.454550
0.452590
0.448680
0.443790
0.436950
0.429130
0.420330
0.413490
0.406650
0.399800
0.393940
0.390030
0.390030
0.393940
0.403710
0.418380
0.437930
0.461390
0.486800
0.509290
0.530790
0.552300
0.572830
0.591400
0.607040
0.618770
0.627570
0.633430
0.638320
0.639300
0.639300
0.637340
0.634410
0.629520
0.623660
0.615840
0.608020
0.598240
0.587490
0.575760
0.562070
0.548390
0.532750
0.517110
0.502440
0.489740
0.474100
0.459430
0.444770
0.431090
0.419350
0.408600
0.398830
0.391010
0.383190
0.377320
0.371460
0.367550
0.363640
0.360700
0.356790
0.352880
0.348000
0.344090
0.340180
0.336270
0.333330
0.330400
0.327470
0.325510
0.324540
0.322580
0.320630
0.319650
0.317690
0.315740
0.313780
0.312810
0.310850
0.308900
0.307920
0.307920
0.306940
0.306940
0.305960
0.304990
0.303030
0.302050
0.301080
0.301080
0.300100
0.300100
0.302050
0.304990
0.310850
0.318670
0.332360
0.349950
0.372430
0.396870
0.424240
0.452590
0.480940
0.506350
0.528840
0.548390
0.562070
0.573800
0.583580
0.592380
0.600200
0.606060
0.609970
0.612900
0.613880
0.614860
0.613880
0.610950
0.608020
0.603130
0.598240
0.591400
0.582600
0.573800
0.563050
0.551320
0.538610
0.524930
0.512220
0.498530
0.486800
0.477030
0.468230
0.459430
0.451610
0.443790
0.436950
0.431090
0.426200
0.422290
0.418380
0.413490
0.408600
0.404690
0.400780
0.396870
0.392960
0.388070
0.383190
0.379280
0.375370
0.370480
0.366570
0.362660
0.358750
0.355820
0.353860
0.351910
0.349950
0.348000
0.345060
0.343110
0.340180
0.337240
0.334310
0.331380
0.329420
0.326490
0.323560
0.322580
0.321600
0.319650
0.317690
0.316720
0.316720
0.319650
0.326490
0.338220
0.357770
0.383190
0.415440
0.447700
0.478980
0.517110
0.555230
0.593350
0.627570
0.656890
0.682310
0.703810
0.721410
0.736070
0.749760
0.764420
0.777130
0.788860
0.803520
0.820140
0.835780
0.849460
0.859240
0.864130
0.863150
0.858260
0.848480
0.835780
0.822090
0.807430
0.790810
0.774190
0.755620
0.737050
0.716520
0.695010
0.672530
0.651030
0.629520
0.608990
0.591400
0.576740
0.564030
0.552300
0.541540
0.531770
0.523950
0.517110
0.510260
0.505380
0.501470
0.496580
0.492670
0.488760
0.484850
0.480940
0.476050
0.470190
0.463340
0.455520
0.447700
0.438910
0.430110
0.420330
0.410560
0.400780
0.392960
0.385140
0.377320
0.368520
0.359730
0.350930
0.341150
0.332360
0.323560
0.314760
0.305960
0.298140
0.293260
0.290320
0.289350
0.293260
0.302050
0.317690
0.340180
0.368520
0.400780
0.435970
0.472140
0.507330
0.539590
0.565980
0.586510
0.607040
0.624630
0.640270
0.652980
0.662760
0.669600
0.675460
0.679370
0.681330
0.681330
0.680350
0.677420
0.673510
0.667640
0.660800
0.652000
0.641250
0.629520
0.615840
0.600200
0.584560
0.567940
0.551320
0.537630
0.524930
0.511240
0.498530
0.486800
0.475070
0.465300
0.456500
0.448680
0.441840
0.435970
0.431090
0.426200
0.422290
0.418380
0.412510
0.407620
0.403710
0.398830
0.394920
0.390030
0.386120
0.382210
0.378300
0.375370
0.373410
0.369500
0.366570
0.362660
0.359730
0.356790
0.353860
0.350930
0.348000
0.345060
0.342130
0.339200
0.337240
0.335290
0.333330
0.330400
0.328450
0.326490
0.325510
0.324540
0.324540
0.327470
0.333330
0.345060
0.359730
0.378300
0.403710
0.435970
0.471160
0.509290
0.545450
0.579670
0.610950
0.638320
0.661780
0.681330
0.696970
0.707720
0.715540
0.722390
0.728250
0.732160
0.735090
0.736070
0.735090
0.732160
0.728250
0.722390
0.713590
0.704790
0.694040
0.682310
0.668620
0.655910
0.644180
0.633430
0.626590
0.621700
0.619750
0.620720
0.622680
0.625610
0.627570
0.626590
0.625610
0.620720
0.613880
0.605080
0.593350
0.581620
0.569890
0.559140
0.551320
0.544480
0.540570
0.536660
0.533720
0.530790
0.509290
0.478980
0.460410
0.448680
0.438910
0.431090
0.423260
0.416420
0.409580
0.403710
0.398830
0.393940
0.388070
0.382210
0.376340
0.369500
0.363640
0.356790
0.348970
0.341150
0.333330
0.326490
0.320630
0.312810
0.305960
0.300100
0.296190
0.297170
0.302050
0.311830
0.327470
0.347020
0.369500
0.393940
0.415440
0.434020
0.453570
0.471160
0.485830
0.498530
0.507330
0.514170
0.519060
0.521990
0.522970
0.522970
0.521990
0.519060
0.515150
0.511240
0.506350
0.500490
0.492670
0.484850
0.475070
0.463340
0.450640
0.436950
0.423260
0.409580
0.397850
0.385140
0.372430
0.359730
0.348970
0.339200
0.330400
0.322580
0.316720
0.310850
0.305960
0.303030
0.300100
0.298140
0.295210
0.291300
0.288370
0.285430
0.282500
0.279570
0.277610
0.274680
0.271750
0.268820
0.267840
0.265880
0.263930
0.261970
0.259040
0.257090
0.255130
0.253180
0.252200
0.250240
0.249270
0.247310
0.247310
0.247310
0.245360
0.244380
0.242420
0.239490
0.237540
0.236560
0.234600
0.234600
0.235580
0.238510
0.245360
0.254150
0.266860
0.285430
0.308900
0.337240
0.367550
0.397850
0.428150
0.456500
0.480940
0.501470
0.519060
0.531770
0.541540
0.550340
0.558160
0.564030
0.568910
0.571850
0.573800
0.574780
0.573800
0.571850
0.568910
0.564030
0.558160
0.551320
0.543500
0.533720
0.522970
0.510260
0.496580
0.481920
0.467250
0.452590
0.439880
0.427170
0.416420
0.408600
0.400780
0.392960
0.386120
0.380250
0.374390
0.368520
0.363640
0.358750
0.353860
0.349950
0.346040
0.343110
0.339200
0.335290
0.330400
0.326490
0.322580
0.318670
0.314760
0.311830
0.307920
0.304990
0.301080
0.299120
0.297170
0.295210
0.292280
0.289350
0.287390
0.284460
0.282500
0.280550
0.277610
0.275660
0.273700
0.272730
0.271750
0.269790
0.267840
0.266860
0.266860
0.270770
0.279570
0.293260
0.311830
0.335290
0.362660
0.391980
0.418380
0.442820
0.469210
0.493650
0.517110
0.536660
0.553270
0.567940
0.579670
0.588470
0.596290
0.601170
0.605080
0.606060
0.607040
0.608020
0.608020
0.606060
0.603130
0.599220
0.593350
0.586510
0.577710
0.567940
0.556210
0.545450
0.533720
0.521990
0.508310
0.495600
0.483870
0.472140
0.461390
0.451610
0.443790
0.435970
0.430110
0.424240
0.420330
0.415440
0.411530
0.406650
0.401760
0.396870
0.392960
0.388070
0.384160
0.380250
0.376340
0.372430
0.369500
0.367550
0.364610
0.361680
0.357770
0.354840
0.351910
0.348970
0.346040
0.342130
0.350930
0.365590
0.372430
0.374390
0.374390
0.373410
0.370480
0.367550
0.363640
0.359730
0.355820
0.352880
0.350930
0.350930
0.354840
0.361680
0.373410
0.391010
0.416420
0.447700
0.483870
0.521990
0.561090
0.598240
0.631480
0.661780
0.687190
0.705770
0.719450
0.732160
0.742910
0.751710
0.758550
0.763440
0.766370
0.768330
0.768330
0.766370
0.763440
0.759530
0.753670
0.746820
0.737050
0.726300
0.713590
0.698920
0.682310
0.665690
0.647120
0.629520
0.611930
0.594330
0.580650
0.568910
0.557180
0.545450
0.535680
0.525900
0.517110
0.508310
0.500490
0.493650
0.485830
0.478010
0.471160
0.465300
0.460410
0.454550
0.447700
0.441840
0.435970
0.430110
0.425220
0.420330
0.415440
0.410560
0.406650
0.402740
0.398830
0.393940
0.389050
0.384160
0.379280
0.376340
0.372430
0.368520
0.365590
0.361680
0.357770
0.354840
0.351910
0.349950
0.348000
0.345060
0.344090
0.345060
0.348970
0.358750
0.374390
0.396870
0.425220
0.458460
0.489740
0.519060
0.553270
0.586510
0.616810
0.643210
0.666670
0.686220
0.701860
0.713590
0.723360
0.731180
0.735090
0.737050
0.738030
0.738030
0.737050
0.735090
0.732160
0.727270
0.720430
0.711630
0.700880
0.689150
0.674490
0.660800
0.646140
0.630500
0.612900
0.595310
0.578690
0.564030
0.549360
0.536660
0.524930
0.515150
0.507330
0.500490
0.494620
0.488760
0.482890
0.477030
0.470190
0.464320
0.458460
0.452590
0.445750
0.438910
0.433040
0.427170
0.422290
0.417400
0.413490
0.408600
0.404690
0.399800
0.395890
0.391980
0.388070
0.384160
0.380250
0.375370
0.372430
0.369500
0.365590
0.361680
0.356790
0.352880
0.348000
0.345060
0.342130
0.341150
0.342130
0.346040
0.353860
0.363640
0.376340
0.395890
0.421310
0.453570
0.490710
0.532750
0.577710
0.622680
0.664710
0.702830
0.735090
0.758550
0.774190
0.788860
0.799610
0.808410
0.814270
0.818180
0.820140
0.820140
0.818180
0.814270
0.808410
0.800590
0.791790
0.782010
0.771260
0.757580
0.743890
0.728250
0.711630
0.695010
0.677420
0.659820
0.642230
0.624630
0.608020
0.593350
0.577710
0.562070
0.547410
0.532750
0.519060
0.505380
0.492670
0.478980
0.465300
0.452590
0.439880
0.429130
0.419350
0.408600
0.396870
0.385140
0.373410
0.362660
0.351910
0.340180
0.329420
0.318670
0.307920
0.299120
0.293260
0.286410
0.278590
0.271750
0.263930
0.257090
0.250240
0.244380
0.239490
0.234600
0.229720
0.225810
0.223850
0.222870
0.219940
0.217010
0.223850
0.235580
0.242420
0.249270
0.257090
0.267840
0.284460
0.305960
0.328450
0.350930
0.378300
0.406650
0.435000
0.461390
0.484850
0.504400
0.521990
0.535680
0.548390
0.557180
0.565000
0.570870
0.574780
0.577710
0.579670
0.580650
0.580650
0.579670
0.577710
0.573800
0.568910
0.562070
0.554250
0.545450
0.536660
0.525900
0.514170
0.502440
0.489740
0.478010
0.466280
0.455520
0.445750
0.437930
0.431090
0.425220
0.420330
0.416420
0.412510
0.408600
0.404690
0.399800
0.395890
0.391980
0.388070
0.384160
0.381230
0.377320
0.374390
0.372430
0.369500
0.365590
0.362660
0.359730
0.356790
0.352880
0.349950
0.347020
0.344090
0.341150
0.338220
0.337240
0.336270
0.335290
0.332360
0.330400
0.327470
0.324540
0.322580
0.319650
0.317690
0.315740
0.313780
0.313780
0.315740
0.318670
0.325510
0.337240
0.353860
0.374390
0.399800
0.427170
0.456500
0.484850
0.510260
0.531770
0.548390
0.564030
0.577710
0.589440
0.598240
0.606060
0.612900
0.617790
0.621700
0.624630
0.626590
0.626590
0.625610
0.623660
0.619750
0.614860
0.608990
0.601170
0.593350
0.583580
0.572830
0.561090
0.548390
0.535680
0.523950
0.513200
0.501470
0.490710
0.479960
0.471160
0.463340
0.456500
0.449660
0.444770
0.438910
0.434020
0.430110
0.426200
0.422290
0.418380
0.414470
0.410560
0.405670
0.401760
0.397850
0.393940
0.390030
0.386120
0.383190
0.380250
0.379280
0.377320
0.375370
0.372430
0.369500
0.366570
0.363640
0.361680
0.359730
0.356790
0.354840
0.351910
0.350930
0.348970
0.347020
0.345060
0.343110
0.341150
0.340180
0.340180
0.344090
0.350930
0.362660
0.379280
0.396870
0.417400
0.441840
0.469210
0.495600
0.521990
0.545450
0.566960
0.585530
0.601170
0.613880
0.624630
0.632450
0.638320
0.642230
0.646140
0.650050
0.652000
0.653960
0.653960
0.653960
0.652000
0.649070
0.645160
0.639300
0.632450
0.624630
0.615840
0.606060
0.594330
0.582600
0.569890
0.557180
0.545450
0.534700
0.524930
0.516130
0.508310
0.502440
0.497560
0.493650
0.488760
0.484850
0.480940
0.476050
0.471160
0.466280
0.461390
0.457480
0.452590
0.449660
0.446730
0.442820
0.439880
0.435970
0.433040
0.430110
0.426200
0.422290
0.418380
0.414470
0.411530
0.408600
0.405670
0.404690
0.402740
0.400780
0.397850
0.394920
0.391980
0.389050
0.386120
0.383190
0.380250
0.377320
0.376340
0.375370
0.376340
0.379280
0.386120
0.397850
0.413490
0.434020
0.458460
0.484850
0.512220
0.557180
0.612900
0.650050
0.678400
0.704790
0.729230
0.752690
0.774190
0.794720
0.814270
0.830890
0.845550
0.858260
0.869010
0.874880
0.877810
0.879770
0.877810
0.873900
0.867060
0.857280
0.844570
0.830890
0.816230
0.800590
0.783970
0.766370
0.749760
0.734120
0.717500
0.701860
0.686220
0.672530
0.658850
0.647120
0.636360
0.625610
0.616810
0.608990
0.602150
0.596290
0.590420
0.583580
0.576740
0.569890
0.562070
0.553270
0.544480
0.535680
0.525900
0.515150
0.505380
0.495600
0.487780
0.478980
0.469210
0.458460
0.448680
0.438910
0.429130
0.418380
0.408600
0.399800
0.391010
0.384160
0.378300
0.370480
0.362660
0.354840
0.348000
0.340180
0.333330
0.329420
0.327470
0.328450
0.335290
0.347020
0.361680
0.383190
0.409580
0.439880
0.472140
0.503420
0.533720
0.560120
0.584560
0.605080
0.622680
0.637340
0.648090
0.655910
0.662760
0.669600
0.674490
0.678400
0.681330
0.683280
0.684260
0.684260
0.682310
0.679370
0.674490
0.668620
0.660800
0.651030
0.640270
0.626590
0.612900
0.599220
0.585530
0.572830
0.561090
0.550340
0.541540
0.533720
0.527860
0.521990
0.516130
0.510260
0.505380
0.500490
0.495600
0.490710
0.484850
0.480940
0.477030
0.474100
0.471160
0.467250
0.463340
0.458460
0.454550
0.451610
0.448680
0.448680
0.449660
0.452590
0.457480
0.463340
0.470190
0.476050
0.482890
0.490710
0.497560
0.502440
0.507330
0.511240
0.515150
0.520040
0.523950
0.527860
0.530790
0.532750
0.532750
0.530790
0.526880
0.522970
0.521020
0.521990
0.527860
0.539590
0.557180
0.579670
0.606060
0.630500
0.652000
0.676440
0.700880
0.723360
0.741940
0.758550
0.773220
0.784950
0.794720
0.801560
0.806450
0.808410
0.808410
0.806450
0.803520
0.799610
0.792770
0.783970
0.774190
0.761490
0.746820
0.730210
0.710650
0.690130
0.671550
0.652000
0.631480
0.609970
0.588470
0.567940
0.549360
0.530790
0.515150
0.500490
0.486800
0.475070
0.465300
0.457480
0.448680
0.440860
0.432060
0.424240
0.416420
0.409580
0.402740
0.395890
0.390030
0.384160
0.378300
0.373410
0.370480
0.366570
0.363640
0.360700
0.356790
0.353860
0.349950
0.347020
0.344090
0.341150
0.338220
0.336270
0.335290
0.333330
0.331380
0.328450
0.326490
0.324540
0.321600
0.319650
0.317690
0.316720
0.317690
0.320630
0.326490
0.336270
0.349950
0.370480
0.394920
0.424240
0.455520
0.488760
0.521990
0.553270
0.582600
0.608020
0.627570
0.642230
0.656890
0.668620
0.679370
0.658850
0.623660
0.607040
0.599220
0.596290
0.593350
0.591400
0.587490
0.583580
0.578690
0.572830
0.565000
0.556210
0.545450
0.533720
0.521020
0.508310
0.494620
0.480940
0.467250
0.455520
0.446730
0.436950
0.428150
0.421310
0.414470
0.408600
0.403710
0.398830
0.393940
0.389050
0.384160
0.380250
0.377320
0.373410
0.369500
0.365590
0.361680
0.356790
0.352880
0.348000
0.344090
0.340180
0.337240
0.333330
0.331380
0.329420
0.326490
0.322580
0.319650
0.317690
0.315740
0.313780
0.311830
0.309870
0.307920
0.305960
0.304990
0.304010
0.301080
0.298140
0.295210
0.292280
0.290320
0.290320
0.294230
0.303030
0.316720
0.335290
0.359730
0.384160
0.409580
0.437930
0.467250
0.495600
0.521990
0.545450
0.565980
0.582600
0.596290
0.607040
0.616810
0.622680
0.627570
0.631480
0.634410
0.636360
0.637340
0.636360
0.635390
0.632450
0.627570
0.621700
0.614860
0.606060
0.596290
0.586510
0.573800
0.561090
0.546430
0.532750
0.519060
0.505380
0.493650
0.481920
0.472140
0.462370
0.455520
0.449660
0.443790
0.437930
0.432060
0.427170
0.422290
0.418380
0.414470
0.410560
0.406650
0.401760
0.396870
0.393940
0.391010
0.387100
0.383190
0.379280
0.375370
0.372430
0.369500
0.366570
0.363640
0.360700
0.357770
0.355820
0.353860
0.351910
0.348970
0.346040
0.343110
0.341150
0.339200
0.336270
0.334310
0.331380
0.329420
0.326490
0.326490
0.327470
0.330400
0.338220
0.349950
0.366570
0.388070
0.415440
0.444770
0.477030
0.508310
0.537630
0.562070
0.581620
0.602150
0.619750
0.634410
0.647120
0.657870
0.666670
0.673510
0.679370
0.683280
0.686220
0.688170
0.688170
0.686220
0.683280
0.679370
0.674490
0.668620
0.660800
0.651030
0.640270
0.627570
0.613880
0.600200
0.586510
0.574780
0.562070
0.549360
0.537630
0.526880
0.517110
0.508310
0.500490
0.493650
0.487780
0.480940
0.475070
0.470190
0.465300
0.460410
0.454550
0.449660
0.443790
0.438910
0.434020
0.428150
0.423260
0.417400
0.412510
0.408600
0.405670
0.402740
0.401760
0.403710
0.407620
0.413490
0.420330
0.428150
0.435000
0.442820
0.448680
0.454550
0.458460
0.462370
0.465300
0.467250
0.467250
0.466280
0.463340
0.460410
0.456500
0.455520
0.456500
0.462370
0.470190
0.480940
0.498530
0.520040
0.545450
0.572830
0.600200
0.624630
0.648090
0.667640
0.684260
0.697950
0.707720
0.714570
0.719450
0.724340
0.729230
0.732160
0.734120
0.734120
0.733140
0.730210
0.725320
0.718480
0.711630
0.703810
0.693060
0.679370
0.662760
0.643210
0.622680
0.600200
0.577710
0.554250
0.530790
0.509290
0.487780
0.471160
0.456500
0.440860
0.427170
0.413490
0.400780
0.389050
0.378300
0.368520
0.358750
0.348970
0.340180
0.332360
0.325510
0.319650
0.313780
0.306940
0.301080
0.295210
0.290320
0.285430
0.281520
0.277610
0.273700
0.269790
0.267840
0.265880
0.263930
0.261970
0.259040
0.257090
0.254150
0.252200
0.250240
0.248290
0.246330
0.245360
0.243400
0.242420
0.242420
0.240470
0.240470
0.240470
0.242420
0.248290
0.259040
0.275660
0.298140
0.327470
0.361680
0.393940
0.425220
0.460410
0.495600
0.527860
0.558160
0.584560
0.606060
0.624630
0.640270
0.652980
0.662760
0.671550
0.676440
0.679370
0.682310
0.683280
0.683280
0.682310
0.678400
0.673510
0.665690
0.656890
0.646140
0.632450
0.619750
0.607040
0.593350
0.579670
0.567940
0.557180
0.550340
0.544480
0.541540
0.539590
0.539590
0.539590
0.539590
0.539590
0.539590
0.540570
0.541540
0.541540
0.542520
0.542520
0.541540
0.538610
0.533720
0.527860
0.521020
0.513200
0.506350
0.499510
0.492670
0.486800
0.481920
0.478010
0.475070
0.472140
0.469210
0.466280
0.463340
0.459430
0.456500
0.453570
0.449660
0.444770
0.437930
0.431090
0.422290
0.413490
0.402740
0.391980
0.380250
0.367550
0.356790
0.348970
0.341150
0.337240
0.338220
0.346040
0.359730
0.380250
0.404690
0.432060
0.461390
0.489740
0.516130
0.536660
0.553270
0.567940
0.579670
0.589440
0.596290
0.602150
0.605080
0.607040
0.607040
0.605080
0.603130
0.599220
0.595310
0.589440
0.581620
0.572830
0.562070
0.550340
0.536660
0.521020
0.504400
0.486800
0.468230
0.450640
0.435970
0.423260
0.408600
0.394920
0.382210
0.370480
0.360700
0.351910
0.343110
0.336270
0.330400
0.324540
0.320630
0.316720
0.312810
0.308900
0.304990
0.300100
0.295210
0.291300
0.286410
0.281520
0.277610
0.273700
0.269790
0.266860
0.264910
0.261970
0.260020
0.257090
0.254150
0.251220
0.249270
0.247310
0.244380
0.241450
0.238510
0.237540
0.236560
0.234600
0.231670
0.228740
0.226780
0.223850
0.221900
0.219940
0.220920
0.223850
0.231670
0.244380
0.260020
0.283480
0.313780
0.348970
0.387100
0.427170
0.465300
0.500490
0.531770
0.559140
0.583580
0.604110
0.618770
0.632450
0.647120
0.663730
0.680350
0.696970
0.713590
0.728250
0.740960
0.751710
0.760510
0.767350
0.770280
0.770280
0.768330
0.765400
0.758550
0.748780
0.731180
0.708700
0.688170
0.667640
0.648090
0.628540
0.609970
0.594330
0.579670
0.565000
0.550340
0.537630
0.525900
0.515150
0.505380
0.496580
0.488760
0.481920
0.474100
0.468230
0.462370
0.455520
0.447700
0.439880
0.431090
0.421310
0.411530
0.401760
0.390030
0.379280
0.367550
0.355820
0.346040
0.337240
0.327470
0.316720
0.306940
0.296190
0.287390
0.278590
0.269790
0.261970
0.254150
0.246330
0.240470
0.234600
0.227760
0.220920
0.215050
0.212120
0.212120
0.217990
0.229720
0.247310
0.272730
0.303030
0.337240
0.368520
0.397850
0.429130
0.459430
0.487780
0.513200
0.534700
0.553270
0.567940
0.580650
0.591400
0.600200
0.605080
0.608990
0.611930
0.613880
0.613880
0.612900
0.610950
0.607040
0.601170
0.594330
0.585530
0.574780
0.562070
0.550340
0.537630
0.522970
0.507330
0.491690
0.476050
0.461390
0.448680
0.436950
0.427170
0.418380
0.410560
0.405670
0.400780
0.395890
0.391010
0.386120
0.381230
0.377320
0.372430
0.368520
0.363640
0.359730
0.356790
0.352880
0.349950
0.348000
0.344090
0.341150
0.337240
0.334310
0.331380
0.328450
0.325510
0.322580
0.319650
0.316720
0.314760
0.313780
0.311830
0.309870
0.306940
0.304990
0.303030
0.301080
0.299120
0.296190
0.294230
0.291300
0.290320
0.292280
0.296190
0.304010
0.316720
0.335290
0.360700
0.391010
0.427170
0.465300
0.504400
0.542520
0.578690
0.606060
0.628540
0.651030
0.670580
0.687190
0.701860
0.713590
0.722390
0.729230
0.734120
0.737050
0.739000
0.738030
0.736070
0.732160
0.727270
0.721410
0.713590
0.702830
0.691100
0.676440
0.660800
0.643210
0.625610
0.608020
0.591400
0.575760
0.560120
0.545450
0.531770
0.519060
0.507330
0.497560
0.487780
0.478980
0.471160
0.463340
0.456500
0.450640
0.445750
0.439880
0.434020
0.428150
0.422290
0.416420
0.410560
0.404690
0.399800
0.393940
0.389050
0.385140
0.381230
0.377320
0.373410
0.368520
0.363640
0.359730
0.354840
0.350930
0.346040
0.342130
0.338220
0.335290
0.332360
0.330400
0.327470
0.324540
0.322580
0.318670
0.315740
0.311830
0.309870
0.308900
0.310850
0.318670
0.328450
0.343110
0.365590
0.394920
0.430110
0.469210
0.508310
0.547410
0.583580
0.616810
0.647120
0.674490
0.695010
0.712610
0.732160
0.751710
0.770280
0.787880
0.802540
0.815250
0.824050
0.830890
0.835780
0.837730
0.836750
0.833820
0.827960
0.820140
0.810360
0.798630
0.783970
0.768330
0.751710
0.734120
0.718480
0.702830
0.690130
0.665690
0.636360
0.618770
0.607040
0.599220
0.593350
0.587490
0.581620
0.576740
0.570870
0.564030
0.557180
0.550340
0.543500
0.535680
0.527860
0.517110
0.506350
0.494620
0.481920
0.469210
0.455520
0.442820
0.430110
0.418380
0.408600
0.398830
0.389050
0.379280
0.368520
0.358750
0.348970
0.339200
0.330400
0.321600
0.313780
0.305960
0.298140
0.292280
0.287390
0.281520
0.275660
0.269790
0.264910
0.260020
0.258060
0.259040
0.263930
0.274680
0.290320
0.308900
0.329420
0.355820
0.386120
0.416420
0.445750
0.474100
0.499510
0.521020
0.539590
0.555230
0.567940
0.578690
0.586510
0.590420
0.595310
0.598240
0.600200
0.601170
0.600200
0.599220
0.596290
0.591400
0.585530
0.578690
0.570870
0.561090
0.550340
0.538610
0.524930
0.511240
0.496580
0.482890
0.469210
0.457480
0.445750
0.435970
0.427170
0.420330
0.415440
0.409580
0.403710
0.398830
0.392960
0.388070
0.383190
0.378300
0.374390
0.369500
0.365590
0.362660
0.359730
0.355820
0.352880
0.348970
0.345060
0.342130
0.338220
0.335290
0.332360
0.328450
0.325510
0.323560
0.321600
0.319650
0.316720
0.314760
0.311830
0.308900
0.306940
0.304010
0.302050
0.300100
0.298140
0.295210
0.293260
0.291300
0.289350
0.288370
0.288370
0.290320
0.297170
0.308900
0.325510
0.348000
0.375370
0.406650
0.438910
0.467250
0.492670
0.519060
0.543500
0.565980
0.585530
0.601170
0.614860
0.625610
0.633430
0.639300
0.643210
0.644180
0.644180
0.643210
0.641250
0.638320
0.633430
0.627570
0.620720
0.610950
0.601170
0.588470
0.574780
0.561090
0.547410
0.534700
0.520040
0.505380
0.491690
0.478980
0.466280
0.454550
0.444770
0.435000
0.427170
0.419350
0.414470
0.409580
0.404690
0.398830
0.393940
0.389050
0.384160
0.379280
0.374390
0.369500
0.364610
0.359730
0.355820
0.352880
0.348970
0.346040
0.342130
0.338220
0.334310
0.331380
0.327470
0.324540
0.321600
0.318670
0.315740
0.313780
0.311830
0.309870
0.307920
0.305960
0.304010
0.302050
0.299120
0.296190
0.293260
0.290320
0.288370
0.288370
0.290320
0.294230
0.303030
0.317690
0.337240
0.362660
0.391010
0.423260
0.456500
0.488760
0.519060
0.546430
0.567940
0.584560
0.600200
0.614860
0.627570
0.638320
0.646140
0.652000
0.655910
0.657870
0.657870
0.656890
0.653960
0.650050
0.645160
0.638320
0.630500
0.621700
0.609970
0.597260
0.583580
0.567940
0.552300
0.536660
0.520040
0.506350
0.493650
0.480940
0.469210
0.459430
0.452590
0.457480
0.472140
0.480940
0.489740
0.499510
0.508310
0.516130
0.521990
0.527860
0.531770
0.534700
0.534700
0.533720
0.530790
0.525900
0.520040
0.512220
0.503420
0.495600
0.488760
0.483870
0.480940
0.478010
0.478010
0.478010
0.478010
0.478010
0.478010
0.476050
0.473120
0.470190
0.467250
0.463340
0.458460
0.453570
0.447700
0.441840
0.435000
0.427170
0.420330
0.413490
0.409580
0.408600
0.413490
0.421310
0.435000
0.455520
0.482890
0.514170
0.548390
0.582600
0.614860
0.644180
0.668620
0.689150
0.705770
0.716520
0.723360
0.729230
0.733140
0.736070
0.736070
0.734120
0.731180
0.726300
0.720430
0.713590
0.703810
0.693060
0.682310
0.669600
0.654940
0.638320
0.620720
0.600200
0.579670
0.559140
0.538610
0.519060
0.500490
0.482890
0.468230
0.456500
0.444770
0.433040
0.423260
0.414470
0.405670
0.398830
0.392960
0.387100
0.381230
0.376340
0.370480
0.366570
0.363640
0.359730
0.355820
0.351910
0.348000
0.343110
0.339200
0.336270
0.332360
0.329420
0.325510
0.323560
0.321600
0.318670
0.316720
0.313780
0.311830
0.309870
0.307920
0.305960
0.303030
0.301080
0.299120
0.297170
0.295210
0.294230
0.292280
0.290320
0.289350
0.289350
0.292280
0.299120
0.313780
0.335290
0.365590
0.422290
0.460410
0.502440
0.573800
0.622680
0.667640
0.709680
0.762460
0.791790
0.816230
0.846530
0.859240
0.869010
0.878790
0.888560
0.896380
0.901270
0.904200
0.902250
0.897360
0.887590
0.874880
0.858260
0.838710
0.819160
0.799610
0.778100
0.755620
0.733140
0.710650
0.689150
0.669600
0.652000
0.635390
0.620720
0.606060
0.594330
0.584560
0.566960
0.554250
0.541540
0.521990
0.509290
0.495600
0.480940
0.460410
0.446730
0.434020
0.418380
0.407620
0.395890
0.384160
0.372430
0.361680
0.350930
0.341150
0.331380
0.322580
0.314760
0.308900
0.304010
0.297170
0.290320
0.284460
0.277610
0.271750
0.266860
0.261970
0.258060
0.253180
0.249270
0.245360
0.242420
0.240470
0.239490
0.240470
0.246330
0.257090
0.275660
0.302050
0.335290
0.374390
0.418380
0.463340
0.502440
0.536660
0.571850
0.605080
0.635390
0.660800
0.682310
0.699900
0.713590
0.724340
0.732160
0.738030
0.740960
0.740960
0.739980
0.737050
0.733140
0.727270
0.720430
0.710650
0.699900
0.686220
0.670580
0.652980
0.634410
0.616810
0.600200
0.581620
0.563050
0.544480
0.527860
0.512220
0.498530
0.485830
0.475070
0.465300
0.456500
0.448680
0.433040
0.413490
0.401760
0.392960
0.386120
0.380250
0.375370
0.370480
0.365590
0.361680
0.357770
0.353860
0.350930
0.348970
0.346040
0.342130
0.339200
0.336270
0.332360
0.328450
0.324540
0.320630
0.317690
0.315740
0.312810
0.310850
0.309870
0.307920
0.305960
0.304010
0.302050
0.300100
0.297170
0.294230
0.291300
0.288370
0.287390
0.288370
0.291300
0.298140
0.310850
0.329420
0.354840
0.386120
0.422290
0.460410
0.499510
0.537630
0.573800
0.607040
0.632450
0.652980
0.673510
0.693060
0.709680
0.725320
0.737050
0.746820
0.753670
0.757580
0.757580
0.755620
0.750730
0.743890
0.736070
0.726300
0.716520
0.704790
0.693060
0.680350
0.665690
0.652000
0.636360
0.621700
0.606060
0.592380
0.580650
0.567940
0.555230
0.542520
0.529810
0.516130
0.503420
0.489740
0.476050
0.462370
0.448680
0.436950
0.425220
0.413490
0.400780
0.388070
0.375370
0.362660
0.350930
0.339200
0.328450
0.317690
0.307920
0.298140
0.291300
0.284460
0.277610
0.269790
0.261970
0.255130
0.249270
0.244380
0.238510
0.233630
0.227760
0.222870
0.219940
0.217010
0.214080
0.210170
0.207230
0.204300
0.202350
0.199410
0.198440
0.200390
0.204300
0.213100
0.225810
0.242420
0.264910
0.292280
0.324540
0.357770
0.390030
0.422290
0.451610
0.477030
0.499510
0.518080
0.533720
0.544480
0.552300
0.559140
0.565000
0.568910
0.571850
0.573800
0.573800
0.571850
0.569890
0.565980
0.560120
0.553270
0.545450
0.535680
0.524930
0.512220
0.499510
0.484850
0.470190
0.454550
0.439880
0.427170
0.414470
0.402740
0.393940
0.386120
0.379280
0.372430
0.366570
0.361680
0.356790
0.351910
0.348000
0.343110
0.339200
0.334310
0.331380
0.328450
0.325510
0.321600
0.319650
0.317690
0.317690
0.319650
0.322580
0.327470
0.333330
0.340180
0.347020
0.352880
0.358750
0.364610
0.369500
0.374390
0.379280
0.382210
0.385140
0.387100
0.387100
0.386120
0.383190
0.381230
0.378300
0.373410
0.368520
0.364610
0.361680
0.361680
0.364610
0.373410
0.387100
0.406650
0.431090
0.459430
0.485830
0.510260
0.536660
0.563050
0.586510
0.607040
0.623660
0.636360
0.645160
0.651030
0.654940
0.655910
0.653960
0.651030
0.647120
0.641250
0.634410
0.626590
0.616810
0.606060
0.595310
0.582600
0.567940
0.553270
0.536660
0.521020
0.505380
0.486800
0.469210
0.450640
0.434020
0.417400
0.403710
0.390030
0.379280
0.368520
0.359730
0.352880
0.348000
0.342130
0.337240
0.331380
0.326490
0.322580
0.327470
0.338220
0.342130
0.343110
0.341150
0.339200
0.337240
0.335290
0.333330
0.331380
0.329420
0.326490
0.324540
0.322580
0.321600
0.319650
0.318670
0.316720
0.315740
0.315740
0.314760
0.313780
0.312810
0.311830
0.310850
0.310850
0.309870
0.308900
0.307920
0.306940
0.306940
0.307920
0.309870
0.314760
0.322580
0.335290
0.352880
0.374390
0.400780
0.430110
0.460410
0.489740
0.517110
0.539590
0.557180
0.574780
0.591400
0.604110
0.614860
0.624630
0.631480
0.636360
0.640270
0.643210
0.644180
0.643210
0.641250
0.638320
0.634410
0.629520
0.623660
0.615840
0.608020
0.597260
0.586510
0.573800
0.561090
0.546430
0.534700
0.522970
0.510260
0.498530
0.487780
0.478010
0.470190
0.462370
0.455520
0.449660
0.443790
0.438910
0.435000
0.431090
0.427170
0.422290
0.417400
0.413490
0.409580
0.405670
0.401760
0.397850
0.394920
0.391010
0.388070
0.385140
0.383190
0.380250
0.378300
0.375370
0.372430
0.370480
0.367550
0.364610
0.362660
0.359730
0.357770
0.356790
0.354840
0.353860
0.350930
0.348970
0.346040
0.344090
0.342130
0.342130
0.343110
0.347020
0.353860
0.365590
0.378300
0.394920
0.417400
0.444770
0.475070
0.508310
0.541540
0.573800
0.604110
0.633430
0.659820
0.682310
0.699900
0.713590
0.726300
0.737050
0.744870
0.748780
0.750730
0.749760
0.746820
0.740960
0.734120
0.726300
0.717500
0.707720
0.696970
0.685240
0.672530
0.658850
0.644180
0.628540
0.611930
0.594330
0.577710
0.561090
0.545450
0.531770
0.520040
0.507330
0.494620
0.482890
0.471160
0.460410
0.450640
0.440860
0.431090
0.421310
0.411530
0.402740
0.394920
0.389050
0.382210
0.374390
0.367550
0.360700
0.352880
0.347020
0.340180
0.334310
0.329420
0.324540
0.321600
0.318670
0.314760
0.310850
0.307920
0.304010
0.301080
0.298140
0.295210
0.293260
0.290320
0.288370
0.286410
0.285430
0.285430
0.284460
0.282500
0.281520
0.280550
0.280550
0.282500
0.288370
0.298140
0.311830
0.331380
0.350930
0.373410
0.398830
0.427170
0.455520
0.481920
0.506350
0.528840
0.547410
0.563050
0.575760
0.586510
0.594330
0.599220
0.602150
0.604110
0.605080
0.606060
0.605080
0.603130
0.600200
0.596290
0.591400
0.584560
0.576740
0.567940
0.559140
0.549360
0.537630
0.524930
0.512220
0.499510
0.487780
0.476050
0.466280
0.458460
0.451610
0.447700
0.445750
0.444770
0.445750
0.448680
0.453570
0.458460
0.463340
0.468230
0.473120
0.475070
0.477030
0.476050
0.474100
0.466280
0.454550
0.445750
0.438910
0.433040
0.429130
0.426200
0.424240
0.423260
0.422290
0.422290
0.422290
0.422290
0.421310
0.421310
0.420330
0.419350
0.417400
0.414470
0.410560
0.406650
0.401760
0.394920
0.388070
0.382210
0.375370
0.367550
0.359730
0.352880
0.348970
0.347020
0.350930
0.358750
0.371460
0.388070
0.407620
0.429130
0.447700
0.464320
0.480940
0.496580
0.509290
0.520040
0.527860
0.532750
0.536660
0.537630
0.537630
0.536660
0.534700
0.531770
0.528840
0.523950
0.518080
0.511240
0.504400
0.495600
0.484850
0.474100
0.462370
0.448680
0.437930
0.426200
0.414470
0.401760
0.390030
0.378300
0.367550
0.357770
0.348970
0.342130
0.336270
0.330400
0.326490
0.322580
0.320630
0.317690
0.313780
0.310850
0.307920
0.304990
0.302050
0.300100
0.297170
0.295210
0.292280
0.291300
0.290320
0.288370
0.286410
0.284460
0.283480
0.281520
0.279570
0.277610
0.275660
0.273700
0.271750
0.269790
0.268820
0.268820
0.267840
0.266860
0.264910
0.263930
0.262950
0.261970
0.261000
0.259040
0.258060
0.258060
0.260020
0.262950
0.269790
0.279570
0.295210
0.314760
0.339200
0.366570
0.395890
0.424240
0.452590
0.477030
0.499510
0.516130
0.528840
0.541540
0.552300
0.563050
0.572830
0.581620
0.590420
0.599220
0.607040
0.614860
0.622680
0.627570
0.630500
0.633430
0.634410
0.633430
0.631480
0.626590
0.620720
0.613880
0.606060
0.597260
0.588470
0.579670
0.569890
0.562070
0.553270
0.543500
0.535680
0.526880
0.519060
0.511240
0.503420
0.496580
0.488760
0.481920
0.475070
0.469210
0.461390
0.454550
0.445750
0.436950
0.428150
0.419350
0.409580
0.399800
0.390030
0.380250
0.371460
0.363640
0.356790
0.348970
0.340180
0.332360
0.324540
0.316720
0.309870
0.303030
0.295210
0.289350
0.282500
0.278590
0.274680
0.269790
0.264910
0.260020
0.255130
0.250240
0.247310
0.245360
0.247310
0.252200
0.261970
0.277610
0.294230
0.312810
0.337240
0.363640
0.390030
0.416420
0.441840
0.463340
0.482890
0.498530
0.512220
0.522970
0.530790
0.535680
0.540570
0.545450
0.548390
0.550340
0.552300
0.552300
0.552300
0.550340
0.547410
0.542520
0.536660
0.530790
0.523950
0.515150
0.504400
0.492670
0.479960
0.467250
0.455520
0.443790
0.433040
0.422290
0.413490
0.406650
0.401760
0.395890
0.390030
0.386120
0.381230
0.377320
0.373410
0.369500
0.366570
0.362660
0.358750
0.355820
0.352880
0.350930
0.348000
0.346040
0.343110
0.340180
0.337240
0.343110
0.351910
0.354840
0.354840
0.352880
0.351910
0.350930
0.348970
0.347020
0.344090
0.342130
0.340180
0.338220
0.335290
0.333330
0.331380
0.329420
0.326490
0.325510
0.324540
0.323560
0.323560
0.324540
0.330400
0.340180
0.357770
0.381230
0.411530
0.447700
0.488760
0.525900
0.561090
0.600200
0.640270
0.678400
0.713590
0.745850
0.774190
0.798630
0.817200
0.831870
0.840660
0.843600
0.841640
0.836750
0.829910
0.820140
0.808410
0.795700
0.782010
0.766370
0.750730
0.734120
0.716520
0.698920
0.683280
0.667640
0.651030
0.635390
0.618770
0.604110
0.588470
0.574780
0.561090
0.548390
0.536660
0.524930
0.515150
0.506350
0.496580
0.486800
0.477030
0.466280
0.456500
0.445750
0.435970
0.425220
0.414470
0.403710
0.394920
0.387100
0.381230
0.374390
0.366570
0.359730
0.352880
0.346040
0.339200
0.332360
0.327470
0.322580
0.317690
0.313780
0.310850
0.306940
0.303030
0.299120
0.296190
0.292280
0.288370
0.285430
0.282500
0.280550
0.278590
0.277610
0.279570
0.283480
0.291300
0.303030
0.321600
0.354840
0.389050
0.415440
0.447700
0.481920
0.516130
0.548390
0.573800
0.593350
0.612900
0.630500
0.645160
0.657870
0.667640
0.675460
0.681330
0.685240
0.688170
0.688170
0.687190
0.685240
0.681330
0.675460
0.669600
0.660800
0.651030
0.639300
0.626590
0.611930
0.597260
0.580650
0.565000
0.550340
0.536660
0.523950
0.511240
0.499510
0.488760
0.479960
0.472140
0.465300
0.458460
0.452590
0.446730
0.440860
0.435970
0.432060
0.428150
0.423260
0.418380
0.413490
0.409580
0.404690
0.400780
0.395890
0.391980
0.388070
0.385140
0.383190
0.380250
0.376340
0.373410
0.370480
0.367550
0.364610
0.361680
0.358750
0.355820
0.351910
0.348970
0.347020
0.346040
0.344090
0.341150
0.337240
0.334310
0.330400
0.328450
0.328450
0.331380
0.339200
0.353860
0.371460
0.392960
0.422290
0.458460
0.498530
0.540570
0.582600
0.621700
0.658850
0.691100
0.720430
0.745850
0.768330
0.784950
0.797650
0.808410
0.818180
0.826000
0.830890
0.832840
0.832840
0.830890
0.826000
0.820140
0.811340
0.800590
0.789830
0.777130
0.762460
0.746820
0.730210
0.712610
0.694040
0.674490
0.654940
0.635390
0.615840
0.597260
0.581620
0.566960
0.551320
0.535680
0.520040
0.505380
0.489740
0.475070
0.456500
0.440860
0.430110
0.418380
0.408600
0.399800
0.390030
0.379280
0.369500
0.358750
0.348970
0.339200
0.330400
0.321600
0.313780
0.305960
0.301080
0.296190
0.284460
0.269790
0.260020
0.253180
0.248290
0.243400
0.239490
0.235580
0.231670
0.228740
0.225810
0.223850
0.223850
0.221900
0.220920
0.220920
0.222870
0.228740
0.239490
0.254150
0.274680
0.300100
0.327470
0.353860
0.378300
0.405670
0.437930
0.465300
0.483870
0.501470
0.516130
0.528840
0.539590
0.547410
0.553270
0.557180
0.559140
0.560120
0.560120
0.559140
0.557180
0.552300
0.546430
0.538610
0.530790
0.520040
0.509290
0.500490
0.490710
0.480940
0.468230
0.455520
0.442820
0.430110
0.418380
0.406650
0.396870
0.387100
0.378300
0.370480
0.365590
0.361680
0.357770
0.354840
0.350930
0.347020
0.342130
0.339200
0.336270
0.331380
0.328450
0.324540
0.321600
0.318670
0.315740
0.313780
0.310850
0.307920
0.304990
0.302050
0.299120
0.297170
0.294230
0.292280
0.290320
0.289350
0.289350
0.288370
0.286410
0.284460
0.282500
0.279570
0.277610
0.274680
0.272730
0.271750
0.270770
0.272730
0.276640
0.284460
0.297170
0.316720
0.342130
0.373410
0.409580
0.448680
0.489740
0.529810
0.567940
0.603130
0.629520
0.650050
0.668620
0.682310
0.692080
0.697950
0.699900
0.698920
0.695010
0.690130
0.683280
0.675460
0.666670
0.657870
0.648090
0.638320
0.627570
0.615840
0.604110
0.591400
0.578690
0.565000
0.550340
0.536660
0.521990
0.510260
0.498530
0.485830
0.474100
0.462370
0.451610
0.440860
0.431090
0.421310
0.411530
0.401760
0.392960
0.385140
0.378300
0.370480
0.361680
0.353860
0.345060
0.337240
0.329420
0.321600
0.313780
0.306940
0.300100
0.293260
0.288370
0.284460
0.279570
0.274680
0.269790
0.265880
0.261000
0.257090
0.254150
0.251220
0.248290
0.245360
0.243400
0.242420
0.240470
0.238510
0.236560
0.233630
0.232650
0.232650
0.234600
0.240470
0.250240
0.264910
0.284460
0.305960
0.328450
0.356790
0.387100
0.417400
0.446730
0.474100
0.497560
0.518080
0.535680
0.550340
0.562070
0.569890
0.575760
0.580650
0.585530
0.588470
0.590420
0.590420
0.590420
0.588470
0.586510
0.581620
0.576740
0.568910
0.562070
0.553270
0.543500
0.531770
0.519060
0.506350
0.492670
0.478980
0.467250
0.455520
0.444770
0.435970
0.429130
0.423260
0.417400
0.411530
0.407620
0.402740
0.397850
0.393940
0.390030
0.385140
0.381230
0.377320
0.374390
0.372430
0.369500
0.366570
0.363640
0.359730
0.356790
0.353860
0.350930
0.348000
0.345060
0.342130
0.339200
0.337240
0.336270
0.334310
0.332360
0.330400
0.327470
0.325510
0.322580
0.328450
0.339200
0.342130
0.343110
0.343110
0.343110
0.343110
0.344090
0.346040
0.351910
0.362660
0.377320
0.397850
0.423260
0.452590
0.482890
0.513200
0.539590
0.562070
0.583580
0.604110
0.622680
0.637340
0.650050
0.659820
0.667640
0.672530
0.676440
0.678400
0.678400
0.677420
0.675460
0.672530
0.669600
0.664710
0.657870
0.651030
0.642230
0.631480
0.619750
0.607040
0.592380
0.579670
0.566960
0.553270
0.540570
0.527860
0.516130
0.506350
0.497560
0.489740
0.481920
0.476050
0.469210
0.464320
0.459430
0.454550
0.448680
0.443790
0.438910
0.434020
0.429130
0.425220
0.421310
0.417400
0.413490
0.409580
0.406650
0.403710
0.400780
0.397850
0.394920
0.391010
0.388070
0.384160
0.381230
0.378300
0.374390
0.371460
0.369500
0.368520
0.366570
0.364610
0.362660
0.360700
0.357770
0.355820
0.352880
0.350930
0.349950
0.350930
0.355820
0.363640
0.374390
0.390030
0.411530
0.436950
0.465300
0.494620
0.522970
0.550340
0.574780
0.597260
0.614860
0.627570
0.637340
0.646140
0.653960
0.659820
0.663730
0.666670
0.667640
0.667640
0.666670
0.664710
0.660800
0.655910
0.650050
0.643210
0.634410
0.624630
0.613880
0.601170
0.588470
0.574780
0.561090
0.547410
0.533720
0.521990
0.511240
0.502440
0.493650
0.485830
0.478010
0.472140
0.466280
0.460410
0.454550
0.449660
0.444770
0.439880
0.435000
0.431090
0.428150
0.424240
0.420330
0.416420
0.412510
0.408600
0.405670
0.401760
0.398830
0.394920
0.391010
0.388070
0.386120
0.383190
0.380250
0.377320
0.375370
0.372430
0.369500
0.366570
0.364610
0.361680
0.358750
0.355820
0.354840
0.352880
0.350930
0.348970
0.348000
0.348000
0.350930
0.358750
0.370480
0.387100
0.408600
0.434020
0.458460
0.480940
0.506350
0.531770
0.556210
0.576740
0.595310
0.609970
0.621700
0.631480
0.638320
0.644180
0.648090
0.650050
0.650050
0.649070
0.647120
0.644180
0.640270
0.635390
0.628540
0.620720
0.610950
0.600200
0.588470
0.577710
0.565980
0.553270
0.539590
0.526880
0.514170
0.501470
0.489740
0.479960
0.471160
0.462370
0.455520
0.450640
0.445750
0.440860
0.435970
0.431090
0.425220
0.420330
0.414470
0.409580
0.405670
0.400780
0.396870
0.392960
0.390030
0.387100
0.383190
0.380250
0.376340
0.372430
0.368520
0.365590
0.362660
0.358750
0.355820
0.352880
0.350930
0.348970
0.347020
0.345060
0.342130
0.339200
0.337240
0.334310
0.331380
0.328450
0.325510
0.323560
0.322580
0.323560
0.328450
0.320630
0.311830
0.321600
0.344090
0.375370
0.410560
0.448680
0.484850
0.519060
0.550340
0.573800
0.592380
0.609970
0.625610
0.638320
0.649070
0.655910
0.661780
0.664710
0.665690
0.665690
0.663730
0.659820
0.654940
0.649070
0.640270
0.630500
0.618770
0.604110
0.588470
0.571850
0.553270
0.534700
0.515150
0.496580
0.480940
0.468230
0.454550
0.441840
0.430110
0.419350
0.409580
0.401760
0.394920
0.388070
0.381230
0.374390
0.367550
0.362660
0.357770
0.351910
0.346040
0.340180
0.335290
0.329420
0.324540
0.319650
0.315740
0.310850
0.306940
0.304010
0.301080
0.297170
0.293260
0.289350
0.286410
0.282500
0.279570
0.276640
0.274680
0.271750
0.268820
0.264910
0.262950
0.261000
0.257090
0.254150
0.251220
0.250240
0.250240
0.255130
0.265880
0.282500
0.305960
0.335290
0.365590
0.396870
0.433040
0.470190
0.506350
0.538610
0.567940
0.592380
0.612900
0.629520
0.643210
0.653960
0.661780
0.666670
0.668620
0.670580
0.671550
0.670580
0.668620
0.664710
0.658850
0.652000
0.643210
0.632450
0.620720
0.608020
0.594330
0.578690
0.562070
0.543500
0.523950
0.505380
0.486800
0.469210
0.455520
0.443790
0.436950
0.435000
0.435970
0.440860
0.448680
0.456500
0.465300
0.474100
0.480940
0.486800
0.492670
0.497560
0.502440
0.505380
0.507330
0.507330
0.503420
0.496580
0.485830
0.472140
0.456500
0.438910
0.419350
0.399800
0.379280
0.358750
0.340180
0.324540
0.311830
0.298140
0.285430
0.274680
0.265880
0.259040
0.254150
0.249270
0.245360
0.242420
0.240470
0.240470
0.244380
0.252200
0.265880
0.284460
0.309870
0.341150
0.376340
0.413490
0.450640
0.485830
0.519060
0.545450
0.565980
0.586510
0.605080
0.620720
0.632450
0.641250
0.648090
0.652980
0.654940
0.655910
0.654940
0.652980
0.650050
0.645160
0.639300
0.631480
0.622680
0.611930
0.600200
0.586510
0.571850
0.556210
0.540570
0.523950
0.509290
0.495600
0.481920
0.469210
0.456500
0.445750
0.435970
0.427170
0.420330
0.413490
0.407620
0.401760
0.396870
0.392960
0.389050
0.385140
0.381230
0.376340
0.372430
0.368520
0.364610
0.360700
0.356790
0.353860
0.348970
0.346040
0.343110
0.341150
0.338220
0.335290
0.332360
0.329420
0.327470
0.324540
0.321600
0.317690
0.314760
0.311830
0.309870
0.307920
0.305960
0.304010
0.301080
0.299120
0.299120
0.301080
0.308900
0.321600
0.340180
0.365590
0.391980
0.419350
0.453570
0.489740
0.525900
0.559140
0.590420
0.616810
0.640270
0.679370
0.725320
0.753670
0.772240
0.782990
0.788860
0.793740
0.795700
0.795700
0.795700
0.793740
0.789830
0.783970
0.776150
0.766370
0.753670
0.740960
0.727270
0.709680
0.691100
0.671550
0.651030
0.630500
0.610950
0.592380
0.576740
0.561090
0.548390
0.536660
0.526880
0.519060
0.511240
0.504400
0.496580
0.488760
0.480940
0.474100
0.467250
0.459430
0.452590
0.445750
0.439880
0.435970
0.431090
0.426200
0.420330
0.414470
0.408600
0.403710
0.397850
0.392960
0.388070
0.383190
0.378300
0.374390
0.372430
0.369500
0.366570
0.362660
0.359730
0.354840
0.349950
0.345060
0.340180
0.336270
0.333330
0.332360
0.334310
0.340180
0.349950
0.366570
0.391010
0.422290
0.458460
0.499510
0.541540
0.582600
0.621700
0.655910
0.682310
0.702830
0.723360
0.739980
0.754640
0.766370
0.775170
0.782990
0.788860
0.791790
0.792770
0.791790
0.787880
0.782010
0.775170
0.766370
0.756600
0.743890
0.730210
0.714570
0.696970
0.679370
0.659820
0.640270
0.621700
0.606060
0.591400
0.576740
0.563050
0.550340
0.538610
0.528840
0.519060
0.510260
0.502440
0.494620
0.486800
0.479960
0.474100
0.467250
0.460410
0.452590
0.445750
0.439880
0.434020
0.428150
0.421310
0.415440
0.408600
0.404690
0.400780
0.395890
0.391010
0.386120
0.381230
0.376340
0.370480
0.365590
0.360700
0.356790
0.350930
0.346040
0.342130
0.339200
0.336270
0.332360
0.328450
0.324540
0.321600
0.319650
0.321600
0.327470
0.339200
0.358750
0.381230
0.407620
0.440860
0.479960
0.519060
0.558160
0.595310
0.627570
0.655910
0.680350
0.700880
0.716520
0.729230
0.737050
0.741940
0.746820
0.749760
0.751710
0.750730
0.748780
0.743890
0.738030
0.730210
0.720430
0.709680
0.697950
0.685240
0.669600
0.652000
0.633430
0.613880
0.594330
0.575760
0.558160
0.541540
0.526880
0.513200
0.500490
0.491690
0.482890
0.475070
0.466280
0.457480
0.448680
0.440860
0.433040
0.426200
0.418380
0.412510
0.405670
0.400780
0.396870
0.391980
0.387100
0.382210
0.376340
0.371460
0.366570
0.360700
0.355820
0.350930
0.346040
0.341150
0.337240
0.335290
0.332360
0.328450
0.324540
0.319650
0.315740
0.311830
0.306940
0.302050
0.298140
0.294230
0.292280
0.292280
0.292280
0.297170
0.305960
0.320630
0.343110
0.371460
0.405670
0.443790
0.482890
0.521020
0.556210
0.584560
0.608020
0.630500
0.651030
0.668620
0.682310
0.693060
0.700880
0.706740
0.711630
0.714570
0.715540
0.713590
0.711630
0.707720
0.690130
0.665690
0.648090
0.632450
0.617790
0.602150
0.585530
0.566960
0.548390
0.529810
0.513200
0.497560
0.481920
0.467250
0.453570
0.440860
0.430110
0.420330
0.411530
0.403710
0.395890
0.389050
0.384160
0.379280
0.374390
0.368520
0.362660
0.357770
0.351910
0.348000
0.343110
0.338220
0.333330
0.327470
0.322580
0.318670
0.314760
0.310850
0.305960
0.301080
0.296190
0.292280
0.288370
0.284460
0.280550
0.276640
0.272730
0.269790
0.267840
0.264910
0.261970
0.258060
0.255130
0.252200
0.250240
0.251220
0.256110
0.264910
0.281520
0.304010
0.329420
0.356790
0.391010
0.430110
0.469210
0.507330
0.541540
0.571850
0.597260
0.618770
0.637340
0.652000
0.661780
0.669600
0.676440
0.682310
0.687190
0.690130
0.691100
0.691100
0.689150
0.685240
0.680350
0.672530
0.662760
0.652980
0.641250
0.627570
0.611930
0.595310
0.578690
0.562070
0.545450
0.528840
0.514170
0.500490
0.487780
0.478010
0.470190
0.462370
0.454550
0.447700
0.441840
0.435000
0.429130
0.423260
0.417400
0.412510
0.406650
0.401760
0.396870
0.391980
0.387100
0.383190
0.379280
0.374390
0.370480
0.365590
0.361680
0.357770
0.353860
0.348970
0.346040
0.343110
0.340180
0.336270
0.332360
0.329420
0.325510
0.322580
0.319650
0.316720
0.312810
0.309870
0.307920
0.307920
0.306940
0.308900
0.314760
0.324540
0.341150
0.364610
0.393940
0.428150
0.464320
0.501470
0.534700
0.562070
0.583580
0.604110
0.623660
0.643210
0.661780
0.682310
0.702830
0.723360
0.741940
0.758550
0.772240
0.781040
0.787880
0.793740
0.801560
0.809380
0.816230
0.823070
0.826980
0.827960
0.825020
0.816230
0.803520
0.785920
0.766370
0.746820
0.723360
0.698920
0.673510
0.649070
0.625610
0.602150
0.579670
0.558160
0.538610
0.519060
0.502440
0.487780
0.472140
0.456500
0.440860
0.425220
0.410560
0.396870
0.383190
0.369500
0.357770
0.346040
0.335290
0.327470
0.319650
0.311830
0.303030
0.295210
0.286410
0.278590
0.271750
0.264910
0.259040
0.253180
0.247310
0.242420
0.239490
0.234600
0.230690
0.225810
0.220920
0.216030
0.212120
0.210170
0.210170
0.215050
0.224830
0.242420
0.261970
0.287390
0.318670
0.356790
0.395890
0.435000
0.473120
0.507330
0.537630
0.565000
0.587490
0.606060
0.619750
0.629520
0.639300
0.648090
0.655910
0.661780
0.666670
0.669600
0.671550
0.671550
0.669600
0.666670
0.660800
0.654940
0.646140
0.635390
0.622680
0.608990
0.593350
0.576740
0.560120
0.544480
0.524930
0.505380
0.491690
0.480940
0.473120
0.466280
0.459430
0.453570
0.448680
0.443790
0.438910
0.434020
0.428150
0.423260
0.418380
0.413490
0.409580
0.405670
0.401760
0.398830
0.394920
0.391010
0.387100
0.383190
0.379280
0.375370
0.371460
0.367550
0.365590
0.363640
0.360700
0.357770
0.353860
0.350930
0.348000
0.345060
0.342130
0.339200
0.335290
0.331380
0.327470
0.325510
0.323560
0.323560
0.324540
0.330400
0.340180
0.355820
0.376340
0.401760
0.430110
0.459430
0.488760
0.514170
0.534700
0.556210
0.575760
0.592380
0.606060
0.617790
0.625610
0.632450
0.636360
0.640270
0.641250
0.641250
0.640270
0.638320
0.635390
0.631480
0.626590
0.619750
0.610950
0.600200
0.588470
0.574780
0.560120
0.546430
0.533720
0.521990
0.509290
0.496580
0.484850
0.474100
0.465300
0.456500
0.448680
0.441840
0.435000
0.429130
0.424240
0.420330
0.415440
0.411530
0.406650
0.401760
0.396870
0.391010
0.386120
0.381230
0.376340
0.371460
0.366570
0.363640
0.359730
0.355820
0.351910
0.348000
0.345060
0.342130
0.339200
0.336270
0.333330
0.329420
0.325510
0.322580
0.320630
0.317690
0.314760
0.311830
0.308900
0.305960
0.303030
0.302050
0.302050
0.305960
0.313780
0.326490
0.341150
0.358750
0.383190
0.410560
0.440860
0.470190
0.498530
0.523950
0.546430
0.565980
0.582600
0.596290
0.605080
0.611930
0.616810
0.621700
0.624630
0.627570
0.627570
0.627570
0.625610
0.622680
0.617790
0.611930
0.605080
0.596290
0.587490
0.576740
0.565000
0.551320
0.536660
0.522970
0.508310
0.494620
0.480940
0.469210
0.458460
0.450640
0.443790
0.437930
0.432060
0.426200
0.421310
0.415440
0.410560
0.405670
0.400780
0.395890
0.390030
0.385140
0.380250
0.377320
0.373410
0.369500
0.365590
0.361680
0.357770
0.352880
0.348000
0.344090
0.340180
0.335290
0.332360
0.329420
0.326490
0.322580
0.319650
0.316720
0.313780
0.310850
0.307920
0.304990
0.301080
0.298140
0.296190
0.295210
0.295210
0.297170
0.303030
0.312810
0.327470
0.347020
0.372430
0.401760
0.432060
0.463340
0.493650
0.518080
0.538610
0.558160
0.575760
0.590420
0.603130
0.613880
0.622680
0.628540
0.633430
0.636360
0.638320
0.638320
0.636360
0.634410
0.631480
0.626590
0.621700
0.613880
0.605080
0.593350
0.581620
0.567940
0.553270
0.537630
0.522970
0.510260
0.497560
0.484850
0.472140
0.461390
0.452590
0.443790
0.435970
0.428150
0.421310
0.414470
0.408600
0.403710
0.399800
0.395890
0.389050
0.382210
0.374390
0.367550
0.360700
0.354840
0.348970
0.343110
0.337240
0.333330
0.329420
0.325510
0.320630
0.315740
0.310850
0.305960
0.300100
0.295210
0.291300
0.287390
0.284460
0.282500
0.281520
0.280550
0.277610
0.273700
0.269790
0.266860
0.265880
0.268820
0.276640
0.291300
0.314760
0.346040
0.379280
0.414470
0.455520
0.498530
0.541540
0.579670
0.612900
0.641250
0.665690
0.687190
0.708700
0.730210
0.753670
0.772240
0.789830
0.808410
0.826980
0.842620
0.853370
0.860220
0.862170
0.861190
0.858260
0.854350
0.849460
0.842620
0.833820
0.822090
0.805470
0.782990
0.753670
0.719450
0.680350
0.640270
0.598240
0.557180
0.516130
0.480940
0.449660
0.416420
0.384160
0.354840
0.327470
0.304010
0.283480
0.265880
0.253180
0.242420
0.234600
0.228740
0.225810
0.224830
0.223850
0.222870
0.221900
0.219940
0.219940
0.218960
0.218960
0.219940
0.220920
0.221900
0.222870
0.224830
0.225810
0.225810
0.224830
0.222870
0.220920
0.217990
0.215050
0.213100
0.210170
0.208210
0.207230
0.208210
0.214080
0.223850
0.241450
0.265880
0.299120
0.339200
0.383190
0.429130
0.476050
0.521020
0.562070
0.594330
0.619750
0.645160
0.668620
0.689150
0.706740
0.722390
0.735090
0.744870
0.752690
0.759530
0.764420
0.766370
0.765400
0.762460
0.759530
0.754640
0.749760
0.745850
0.740960
0.738030
0.734120
0.728250
0.722390
0.713590
0.705770
0.695990
0.686220
0.674490
0.663730
0.652000
0.639300
0.628540
0.616810
0.606060
0.595310
0.584560
0.573800
0.563050
0.552300
0.537630
0.521020
0.502440
0.481920
0.460410
0.437930
0.415440
0.393940
0.373410
0.355820
0.342130
0.331380
0.322580
0.315740
0.309870
0.304990
0.301080
0.298140
0.296190
0.294230
0.292280
0.290320
0.288370
0.287390
0.287390
0.285430
0.283480
0.282500
0.282500
0.286410
0.294230
0.309870
0.333330
0.363640
0.399800
0.435970
0.471160
0.511240
0.551320
0.589440
0.622680
0.652000
0.675460
0.695010
0.711630
0.724340
0.734120
0.741940
0.745850
0.746820
0.747800
0.746820
0.744870
0.741940
0.738030
0.732160
0.724340
0.714570
0.702830
0.688170
0.673510
0.657870
0.640270
0.620720
0.602150
0.583580
0.566960
0.551320
0.536660
0.522970
0.511240
0.501470
0.491690
0.484850
0.478980
0.473120
0.467250
0.461390
0.454550
0.447700
0.440860
0.435000
0.428150
0.422290
0.417400
0.412510
0.408600
0.403710
0.398830
0.393940
0.389050
0.384160
0.378300
0.373410
0.368520
0.365590
0.364610
0.362660
0.360700
0.358750
0.355820
0.351910
0.347020
0.344090
0.341150
0.340180
0.342130
0.347020
0.357770
0.372430
0.390030
0.409580
0.436950
0.470190
0.507330
0.547410
0.589440
0.629520
0.667640
0.702830
0.733140
0.759530
0.780060
0.794720
0.809380
0.822090
0.830890
0.835780
0.834800
0.829910
0.819160
0.805470
0.787880
0.768330
0.745850
0.724340
0.702830
0.678400
0.652980
0.627570
0.603130
0.577710
0.553270
0.531770
0.511240
0.492670
0.475070
0.462370
0.450640
0.439880
0.430110
0.421310
0.413490
0.405670
0.398830
0.392960
0.387100
0.381230
0.375370
0.370480
0.366570
0.362660
0.357770
0.351910
0.346040
0.340180
0.333330
0.327470
0.321600
0.315740
0.309870
0.304010
0.300100
0.297170
0.294230
0.290320
0.286410
0.282500
0.279570
0.275660
0.271750
0.268820
0.265880
0.262950
0.260020
0.258060
0.257090
0.256110
0.255130
0.256110
0.261000
0.270770
0.286410
0.307920
0.336270
0.369500
0.404690
0.436950
0.466280
0.497560
0.526880
0.553270
0.575760
0.595310
0.610950
0.622680
0.633430
0.640270
0.646140
0.650050
0.651030
0.650050
0.649070
0.647120
0.643210
0.638320
0.631480
0.622680
0.611930
0.599220
0.585530
0.570870
0.557180
0.544480
0.529810
0.514170
0.499510
0.484850
0.472140
0.461390
0.454550
0.451610
0.451610
0.456500
0.463340
0.472140
0.479960
0.488760
0.497560
0.503420
0.507330
0.508310
0.507330
0.503420
0.498530
0.492670
0.485830
0.479960
0.473120
0.466280
0.458460
0.450640
0.442820
0.435000
0.427170
0.418380
0.408600
0.399800
0.390030
0.381230
0.374390
0.368520
0.362660
0.356790
0.350930
0.345060
0.341150
0.337240
0.335290
0.336270
0.340180
0.349950
0.361680
0.377320
0.399800
0.426200
0.456500
0.488760
0.520040
0.548390
0.573800
0.595310
0.612900
0.625610
0.635390
0.641250
0.644180
0.646140
0.647120
0.646140
0.643210
0.638320
0.632450
0.625610
0.616810
0.608020
0.597260
0.586510
0.574780
0.561090
0.545450
0.528840
0.511240
0.492670
0.474100
0.455520
0.438910
0.423260
0.408600
0.395890
0.386120
0.378300
0.370480
0.363640
0.356790
0.350930
0.345060
0.340180
0.335290
0.331380
0.326490
0.321600
0.317690
0.314760
0.311830
0.308900
0.304990
0.301080
0.298140
0.294230
0.290320
0.287390
0.285430
0.283480
0.281520
0.281520
0.281520
0.280550
0.279570
0.278590
0.276640
0.274680
0.272730
0.270770
0.268820
0.265880
0.263930
0.263930
0.263930
0.265880
0.270770
0.276640
0.286410
0.303030
0.325510
0.352880
0.382210
0.414470
0.445750
0.472140
0.494620
0.517110
0.537630
0.555230
0.570870
0.583580
0.594330
0.603130
0.609970
0.615840
0.619750
0.621700
0.622680
0.621700
0.619750
0.616810
0.612900
0.607040
0.600200
0.592380
0.582600
0.571850
0.560120
0.547410
0.534700
0.523950
0.511240
0.498530
0.486800
0.475070
0.465300
0.456500
0.448680
0.441840
0.435970
0.431090
0.426200
0.421310
0.417400
0.413490
0.408600
0.403710
0.399800
0.397850
0.397850
0.399800
0.404690
0.411530
0.421310
0.429130
0.436950
0.443790
0.449660
0.451610
0.451610
0.448680
0.443790
0.437930
0.432060
0.426200
0.422290
0.419350
0.416420
0.413490
0.409580
0.402740
0.393940
0.383190
0.372430
0.360700
0.350930
0.344090
0.341150
0.344090
0.350930
0.361680
0.380250
0.403710
0.430110
0.458460
0.486800
0.514170
0.538610
0.560120
0.579670
0.597260
0.610950
0.621700
0.629520
0.636360
0.641250
0.645160
0.647120
0.648090
0.647120
0.644180
0.639300
0.632450
0.623660
0.614860
0.604110
0.590420
0.575760
0.560120
0.542520
0.524930
0.507330
0.490710
0.475070
0.460410
0.446730
0.434020
0.424240
0.416420
0.407620
0.399800
0.391980
0.385140
0.378300
0.372430
0.366570
0.361680
0.355820
0.350930
0.347020
0.344090
0.341150
0.337240
0.334310
0.330400
0.327470
0.325510
0.322580
0.320630
0.317690
0.315740
0.313780
0.311830
0.310850
0.308900
0.306940
0.304990
0.303030
0.301080
0.300100
0.298140
0.296190
0.294230
0.292280
0.291300
0.290320
0.291300
0.293260
0.298140
0.308900
0.324540
0.345060
0.370480
0.399800
0.431090
0.462370
0.492670
0.517110
0.536660
0.556210
0.573800
0.589440
0.602150
0.611930
0.620720
0.626590
0.631480
0.634410
0.636360
0.636360
0.634410
0.631480
0.627570
0.622680
0.615840
0.608020
0.599220
0.588470
0.576740
0.564030
0.550340
0.535680
0.522970
0.511240
0.499510
0.486800
0.476050
0.466280
0.457480
0.449660
0.441840
0.435970
0.429130
0.424240
0.420330
0.416420
0.412510
0.408600
0.403710
0.398830
0.393940
0.389050
0.385140
0.380250
0.375370
0.371460
0.367550
0.364610
0.363640
0.362660
0.363640
0.365590
0.370480
0.376340
0.383190
0.390030
0.396870
0.402740
0.406650
0.409580
0.411530
0.412510
0.412510
0.411530
0.411530
0.411530
0.411530
0.412510
0.414470
0.418380
0.424240
0.432060
0.441840
0.456500
0.475070
0.495600
0.517110
0.538610
0.559140
0.576740
0.591400
0.603130
0.635390
0.677420
0.699900
0.712610
0.721410
0.726300
0.729230
0.730210
0.729230
0.727270
0.724340
0.719450
0.712610
0.703810
0.693060
0.681330
0.665690
0.648090
0.627570
0.605080
0.582600
0.559140
0.537630
0.515150
0.494620
0.475070
0.457480
0.442820
0.430110
0.417400
0.404690
0.392960
0.382210
0.370480
0.359730
0.348970
0.339200
0.329420
0.320630
0.313780
0.307920
0.302050
0.296190
0.290320
0.284460
0.278590
0.273700
0.268820
0.264910
0.260020
0.256110
0.252200
0.249270
0.246330
0.243400
0.240470
0.237540
0.235580
0.233630
0.230690
0.228740
0.226780
0.223850
0.220920
0.218960
0.218960
0.217990
0.218960
0.222870
0.233630
0.251220
0.275660
0.307920
0.345060
0.386120
0.428150
0.470190
0.504400
0.534700
0.564030
0.591400
0.614860
0.634410
0.650050
0.661780
0.671550
0.678400
0.683280
0.686220
0.686220
0.684260
0.681330
0.676440
0.670580
0.661780
0.651030
0.638320
0.623660
0.607040
0.589440
0.570870
0.551320
0.534700
0.519060
0.502440
0.485830
0.470190
0.455520
0.441840
0.430110
0.420330
0.411530
0.403710
0.395890
0.390030
0.384160
0.378300
0.371460
0.365590
0.359730
0.352880
0.347020
0.340180
0.334310
0.328450
0.322580
0.317690
0.313780
0.309870
0.305960
0.302050
0.297170
0.293260
0.288370
0.283480
0.278590
0.274680
0.269790
0.265880
0.262950
0.260020
0.257090
0.253180
0.249270
0.245360
0.241450
0.238510
0.235580
0.235580
0.238510
0.247310
0.262950
0.281520
0.304990
0.336270
0.373410
0.413490
0.455520
0.495600
0.532750
0.565000
0.592380
0.614860
0.633430
0.647120
0.655910
0.662760
0.668620
0.672530
0.674490
0.674490
0.672530
0.668620
0.664710
0.657870
0.650050
0.639300
0.627570
0.614860
0.600200
0.582600
0.564030
0.544480
0.524930
0.504400
0.485830
0.467250
0.450640
0.436950
0.427170
0.422290
0.419350
0.420330
0.425220
0.434020
0.444770
0.455520
0.467250
0.476050
0.483870
0.488760
0.492670
0.493650
0.494620
0.493650
0.492670
0.490710
0.487780
0.481920
0.474100
0.465300
0.454550
0.442820
0.431090
0.420330
0.411530
0.401760
0.392960
0.384160
0.377320
0.370480
0.365590
0.359730
0.353860
0.348970
0.343110
0.339200
0.336270
0.333330
0.331380
0.332360
0.336270
0.346040
0.361680
0.383190
0.411530
0.442820
0.477030
0.511240
0.540570
0.565000
0.588470
0.608990
0.625610
0.638320
0.648090
0.653960
0.656890
0.656890
0.654940
0.650050
0.644180
0.636360
0.626590
0.615840
0.603130
0.595310
0.587490
0.575760
0.560120
0.541540
0.521020
0.499510
0.477030
0.456500
0.437930
0.418380
0.398830
0.380250
0.363640
0.348000
0.335290
0.324540
0.314760
0.305960
0.299120
0.294230
0.291300
0.288370
0.284460
0.280550
0.275660
0.271750
0.267840
0.263930
0.261000
0.258060
0.254150
0.251220
0.249270
0.248290
0.246330
0.244380
0.243400
0.242420
0.240470
0.238510
0.237540
0.236560
0.236560
0.236560
0.237540
0.238510
0.237540
0.237540
0.235580
0.234600
0.232650
0.231670
0.231670
0.233630
0.238510
0.249270
0.264910
0.285430
0.308900
0.342130
0.380250
0.422290
0.464320
0.505380
0.544480
0.581620
0.616810
0.651030
0.684260
0.711630
0.736070
0.763440
0.789830
0.812320
0.831870
0.846530
0.857280
0.865100
0.869010
0.870970
0.870970
0.869010
0.864130
0.855330
0.843600
0.828930
0.809380
0.785920
0.760510
0.732160
0.701860
0.672530
0.643210
0.614860
0.590420
0.569890
0.549360
0.530790
0.513200
0.497560
0.482890
0.470190
0.459430
0.449660
0.439880
0.431090
0.423260
0.415440
0.409580
0.403710
0.396870
0.390030
0.383190
0.375370
0.367550
0.359730
0.351910
0.343110
0.336270
0.330400
0.325510
0.318670
0.312810
0.305960
0.299120
0.292280
0.285430
0.278590
0.271750
0.264910
0.257090
0.250240
0.246330
0.243400
0.239490
0.237540
0.238510
0.245360
0.258060
0.278590
0.305960
0.340180
0.379280
0.420330
0.456500
0.488760
0.521020
0.552300
0.579670
0.603130
0.623660
0.640270
0.653960
0.664710
0.672530
0.678400
0.682310
0.684260
0.683280
0.682310
0.679370
0.675460
0.669600
0.662760
0.653960
0.642230
0.629520
0.614860
0.599220
0.583580
0.567940
0.552300
0.535680
0.520040
0.505380
0.492670
0.481920
0.471160
0.462370
0.454550
0.447700
0.440860
0.435970
0.431090
0.426200
0.421310
0.415440
0.410560
0.404690
0.399800
0.394920
0.390030
0.386120
0.381230
0.378300
0.375370
0.370480
0.366570
0.361680
0.357770
0.352880
0.348970
0.344090
0.340180
0.336270
0.333330
0.330400
0.329420
0.326490
0.323560
0.320630
0.317690
0.314760
0.311830
0.308900
0.305960
0.304010
0.304990
0.309870
0.317690
0.330400
0.350930
0.377320
0.410560
0.447700
0.489740
0.533720
0.577710
0.619750
0.660800
0.698920
0.729230
0.754640
0.780060
0.803520
0.824050
0.840660
0.853370
0.863150
0.869010
0.871950
0.872920
0.871950
0.869010
0.863150
0.853370
0.842620
0.827960
0.810360
0.789830
0.767350
0.742910
0.716520
0.691100
0.665690
0.625610
0.580650
0.553270
0.532750
0.516130
0.503420
0.492670
0.482890
0.475070
0.467250
0.459430
0.451610
0.443790
0.436950
0.430110
0.424240
0.417400
0.410560
0.402740
0.393940
0.386120
0.379280
0.371460
0.363640
0.355820
0.348000
0.341150
0.335290
0.328450
0.320630
0.313780
0.306940
0.300100
0.294230
0.287390
0.281520
0.275660
0.269790
0.263930
0.260020
0.256110
0.252200
0.248290
0.244380
0.242420
0.242420
0.246330
0.256110
0.271750
0.292280
0.316720
0.341150
0.366570
0.394920
0.423260
0.450640
0.475070
0.497560
0.516130
0.530790
0.543500
0.552300
0.560120
0.565980
0.568910
0.570870
0.572830
0.573800
0.573800
0.571850
0.569890
0.565000
0.560120
0.552300
0.543500
0.533720
0.523950
0.513200
0.502440
0.489740
0.477030
0.465300
0.453570
0.442820
0.433040
0.424240
0.416420
0.409580
0.403710
0.398830
0.394920
0.391010
0.386120
0.382210
0.377320
0.373410
0.369500
0.365590
0.361680
0.357770
0.353860
0.351910
0.348970
0.346040
0.342130
0.338220
0.334310
0.330400
0.326490
0.322580
0.319650
0.316720
0.313780
0.310850
0.308900
0.307920
0.304990
0.303030
0.300100
0.298140
0.295210
0.292280
0.289350
0.286410
0.283480
0.281520
0.280550
0.281520
0.285430
0.292280
0.304990
0.321600
0.343110
0.368520
0.396870
0.425220
0.454550
0.480940
0.502440
0.519060
0.536660
0.551320
0.563050
0.572830
0.580650
0.586510
0.590420
0.593350
0.594330
0.593350
0.591400
0.589440
0.585530
0.583580
0.581620
0.580650
0.581620
0.583580
0.585530
0.587490
0.588470
0.588470
0.587490
0.584560
0.581620
0.577710
0.573800
0.570870
0.568910
0.566960
0.565000
0.563050
0.559140
0.552300
0.543500
0.532750
0.521990
0.510260
0.496580
0.481920
0.468230
0.455520
0.442820
0.432060
0.422290
0.413490
0.405670
0.398830
0.392960
0.387100
0.382210
0.377320
0.372430
0.366570
0.360700
0.355820
0.350930
0.345060
0.339200
0.333330
0.326490
0.321600
0.316720
0.309870
0.302050
0.295210
0.287390
0.280550
0.273700
0.268820
0.266860
0.267840
0.273700
0.283480
0.295210
0.312810
0.334310
0.357770
0.382210
0.405670
0.427170
0.445750
0.461390
0.474100
0.484850
0.492670
0.497560
0.500490
0.503420
0.504400
0.505380
0.504400
0.503420
0.501470
0.497560
0.493650
0.487780
0.481920
0.475070
0.468230
0.459430
0.448680
0.436950
0.424240
0.411530
0.397850
0.385140
0.373410
0.362660
0.353860
0.346040
0.340180
0.335290
0.331380
0.327470
0.323560
0.330400
0.342130
0.345060
0.345060
0.343110
0.340180
0.338220
0.336270
0.334310
0.332360
0.329420
0.326490
0.323560
0.320630
0.318670
0.315740
0.313780
0.311830
0.308900
0.306940
0.306940
0.305960
0.304990
0.304990
0.304010
0.303030
0.302050
0.301080
0.300100
0.298140
0.297170
0.295210
0.295210
0.296190
0.296190
0.298140
0.303030
0.311830
0.328450
0.351910
0.383190
0.422290
0.468230
0.518080
0.568910
0.614860
0.654940
0.696970
0.738030
0.775170
0.807430
0.834800
0.857280
0.874880
0.889540
0.901270
0.910070
0.916910
0.920820
0.924730
0.927660
0.929620
0.927660
0.922780
0.913980
0.902250
0.886610
0.868040
0.846530
0.823070
0.800590
0.779080
0.755620
0.732160
0.709680
0.689150
0.670580
0.653960
0.640270
0.627570
0.615840
0.604110
0.594330
0.585530
0.575760
0.565980
0.556210
0.545450
0.532750
0.521020
0.508310
0.496580
0.484850
0.473120
0.462370
0.452590
0.444770
0.435970
0.425220
0.414470
0.403710
0.391980
0.381230
0.372430
0.362660
0.353860
0.345060
0.340180
0.334310
0.328450
0.320630
0.313780
0.306940
0.301080
0.295210
0.289350
0.284460
0.281520
0.282500
0.288370
0.299120
0.315740
0.341150
0.372430
0.408600
0.449660
0.490710
0.531770
0.569890
0.604110
0.634410
0.659820
0.678400
0.693060
0.706740
0.719450
0.730210
0.738030
0.744870
0.749760
0.752690
0.753670
0.752690
0.749760
0.745850
0.740960
0.733140
0.724340
0.712610
0.698920
0.683280
0.666670
0.650050
0.633430
0.616810
0.600200
0.585530
0.573800
0.563050
0.553270
0.544480
0.535680
0.526880
0.520040
0.512220
0.506350
0.499510
0.493650
0.488760
0.483870
0.478980
0.474100
0.469210
0.464320
0.457480
0.451610
0.445750
0.439880
0.435000
0.430110
0.425220
0.421310
0.418380
0.416420
0.413490
0.410560
0.407620
0.403710
0.399800
0.396870
0.392960
0.389050
0.386120
0.382210
0.378300
0.376340
0.373410
0.370480
0.367550
0.364610
0.363640
0.366570
0.372430
0.385140
0.403710
0.430110
0.463340
0.494620
0.526880
0.564030
0.602150
0.638320
0.671550
0.701860
0.727270
0.747800
0.765400
0.780060
0.790810
0.797650
0.800590
0.804500
0.806450
0.806450
0.805470
0.802540
0.797650
0.790810
0.782010
0.772240
0.760510
0.746820
0.732160
0.718480
0.701860
0.684260
0.666670
0.650050
0.633430
0.616810
0.602150
0.588470
0.576740
0.565000
0.556210
0.549360
0.542520
0.535680
0.528840
0.522970
0.517110
0.511240
0.505380
0.499510
0.492670
0.486800
0.462370
0.430110
0.412510
0.400780
0.392960
0.387100
0.382210
0.378300
0.374390
0.371460
0.367550
0.364610
0.360700
0.356790
0.354840
0.351910
0.348000
0.345060
0.341150
0.338220
0.334310
0.331380
0.328450
0.325510
0.323560
0.320630
0.318670
0.318670
0.319650
0.322580
0.328450
0.338220
0.353860
0.374390
0.399800
0.428150
0.459430
0.490710
0.516130
0.538610
0.560120
0.579670
0.597260
0.611930
0.624630
0.633430
0.640270
0.646140
0.650050
0.652980
0.653960
0.652980
0.650050
0.647120
0.642230
0.636360
0.629520
0.620720
0.610950
0.599220
0.586510
0.572830
0.558160
0.545450
0.532750
0.520040
0.507330
0.494620
0.483870
0.474100
0.466280
0.461390
0.459430
0.460410
0.464320
0.471160
0.477030
0.483870
0.491690
0.498530
0.504400
0.508310
0.510260
0.511240
0.510260
0.509290
0.508310
0.505380
0.501470
0.497560
0.492670
0.487780
0.483870
0.478980
0.475070
0.472140
0.469210
0.467250
0.466280
0.464320
0.463340
0.461390
0.459430
0.457480
0.454550
0.451610
0.447700
0.442820
0.436950
0.431090
0.425220
0.420330
0.417400
0.415440
0.417400
0.422290
0.433040
0.446730
0.463340
0.481920
0.501470
0.520040
0.536660
0.550340
0.561090
0.567940
0.570870
0.572830
0.573800
0.571850
0.568910
0.565000
0.560120
0.554250
0.547410
0.539590
0.529810
0.520040
0.510260
0.499510
0.487780
0.474100
0.460410
0.444770
0.429130
0.412510
0.396870
0.381230
0.366570
0.352880
0.343110
0.334310
0.326490
0.318670
0.310850
0.304990
0.299120
0.295210
0.291300
0.287390
0.284460
0.280550
0.277610
0.274680
0.272730
0.270770
0.268820
0.265880
0.263930
0.261000
0.259040
0.256110
0.254150
0.252200
0.250240
0.249270
0.249270
0.247310
0.245360
0.244380
0.243400
0.242420
0.242420
0.241450
0.240470
0.239490
0.238510
0.236560
0.235580
0.234600
0.233630
0.231670
0.230690
0.229720
0.231670
0.237540
0.247310
0.262950
0.283480
0.308900
0.334310
0.360700
0.390030
0.421310
0.451610
0.479960
0.506350
0.530790
0.552300
0.572830
0.592380
0.610950
0.629520
0.643210
0.654940
0.667640
0.680350
0.691100
0.700880
0.709680
0.715540
0.720430
0.722390
0.723360
0.721410
0.716520
0.709680
0.698920
0.685240
0.668620
0.650050
0.630500
0.608990
0.588470
0.566960
0.547410
0.528840
0.511240
0.497560
0.485830
0.475070
0.465300
0.456500
0.449660
0.441840
0.435000
0.429130
0.422290
0.414470
0.406650
0.400780
0.393940
0.387100
0.379280
0.371460
0.363640
0.361680
0.360700
0.356790
0.349950
0.343110
0.336270
0.328450
0.322580
0.316720
0.309870
0.303030
0.295210
0.288370
0.282500
0.275660
0.269790
0.263930
0.257090
0.252200
0.248290
0.245360
0.243400
0.244380
0.249270
0.260020
0.276640
0.300100
0.327470
0.358750
0.391010
0.423260
0.454550
0.479960
0.501470
0.521990
0.541540
0.558160
0.572830
0.584560
0.595310
0.603130
0.608990
0.613880
0.616810
0.617790
0.617790
0.615840
0.613880
0.610950
0.606060
0.599220
0.591400
0.581620
0.570870
0.558160
0.545450
0.533720
0.521990
0.511240
0.499510
0.488760
0.478010
0.469210
0.460410
0.453570
0.447700
0.441840
0.436950
0.432060
0.429130
0.426200
0.422290
0.419350
0.415440
0.411530
0.407620
0.403710
0.400780
0.396870
0.392960
0.390030
0.387100
0.384160
0.381230
0.378300
0.374390
0.370480
0.367550
0.363640
0.361680
0.359730
0.359730
0.360700
0.363640
0.367550
0.372430
0.379280
0.389050
0.401760
0.417400
0.435000
0.452590
0.469210
0.482890
0.493650
0.501470
0.505380
0.509290
0.514170
0.521020
0.530790
0.542520
0.557180
0.572830
0.588470
0.603130
0.616810
0.628540
0.638320
0.645160
0.651030
0.657870
0.663730
0.669600
0.675460
0.680350
0.684260
0.687190
0.688170
0.688170
0.686220
0.682310
0.676440
0.668620
0.658850
0.647120
0.634410
0.619750
0.604110
0.587490
0.569890
0.553270
0.537630
0.521990
0.508310
0.496580
0.484850
0.474100
0.463340
0.454550
0.445750
0.437930
0.430110
0.422290
0.415440
0.408600
0.403710
0.398830
0.392960
0.388070
0.382210
0.376340
0.370480
0.365590
0.360700
0.356790
0.352880
0.348970
0.346040
0.344090
0.343110
0.341150
0.338220
0.336270
0.333330
0.331380
0.328450
0.325510
0.323560
0.320630
0.318670
0.317690
0.317690
0.316720
0.314760
0.312810
0.311830
0.310850
0.311830
0.315740
0.322580
0.335290
0.353860
0.378300
0.402740
0.429130
0.460410
0.493650
0.527860
0.559140
0.588470
0.613880
0.636360
0.654940
0.670580
0.682310
0.690130
0.695010
0.699900
0.702830
0.705770
0.705770
0.704790
0.702830
0.697950
0.693060
0.685240
0.676440
0.665690
0.654940
0.643210
0.630500
0.615840
0.601170
0.585530
0.570870
0.556210
0.543500
0.530790
0.520040
0.510260
0.502440
0.495600
0.488760
0.481920
0.475070
0.468230
0.462370
0.456500
0.451610
0.445750
0.439880
0.434020
0.428150
0.424240
0.421310
0.416420
0.412510
0.407620
0.402740
0.398830
0.394920
0.391010
0.386120
0.382210
0.378300
0.379280
0.384160
0.384160
0.382210
0.380250
0.376340
0.373410
0.369500
0.366570
0.363640
0.359730
0.356790
0.351910
0.348970
0.348000
0.346040
0.347020
0.351910
0.361680
0.377320
0.398830
0.427170
0.459430
0.494620
0.531770
0.563050
0.591400
0.619750
0.646140
0.669600
0.689150
0.705770
0.719450
0.730210
0.738030
0.742910
0.745850
0.745850
0.744870
0.741940
0.739000
0.734120
0.728250
0.720430
0.710650
0.698920
0.685240
0.670580
0.654940
0.637340
0.621700
0.607040
0.592380
0.576740
0.561090
0.547410
0.533720
0.521990
0.511240
0.501470
0.492670
0.484850
0.478980
0.474100
0.468230
0.461390
0.455520
0.448680
0.442820
0.435970
0.429130
0.423260
0.417400
0.411530
0.406650
0.401760
0.397850
0.393940
0.390030
0.385140
0.381230
0.376340
0.371460
0.366570
0.362660
0.357770
0.352880
0.349950
0.348970
0.347020
0.348000
0.350930
0.355820
0.362660
0.371460
0.379280
0.387100
0.393940
0.401760
0.410560
0.418380
0.429130
0.444770
0.467250
0.495600
0.528840
0.566960
0.608020
0.648090
0.686220
0.720430
0.750730
0.773220
0.790810
0.807430
0.823070
0.835780
0.845550
0.853370
0.858260
0.861190
0.861190
0.859240
0.855330
0.848480
0.838710
0.827960
0.814270
0.798630
0.780060
0.759530
0.737050
0.711630
0.686220
0.658850
0.631480
0.604110
0.580650
0.560120
0.538610
0.517110
0.497560
0.478980
0.462370
0.445750
0.431090
0.417400
0.403710
0.391010
0.378300
0.368520
0.360700
0.350930
0.341150
0.330400
0.321600
0.311830
0.304010
0.296190
0.288370
0.281520
0.275660
0.270770
0.267840
0.262950
0.259040
0.255130
0.251220
0.248290
0.245360
0.242420
0.239490
0.236560
0.233630
0.230690
0.229720
0.228740
0.226780
0.224830
0.221900
0.219940
0.218960
0.219940
0.224830
0.233630
0.248290
0.269790
0.294230
0.320630
0.354840
0.391980
0.431090
0.469210
0.505380
0.538610
0.567940
0.593350
0.613880
0.631480
0.645160
0.655910
0.662760
0.668620
0.673510
0.677420
0.678400
0.679370
0.677420
0.675460
0.670580
0.664710
0.655910
0.647120
0.637340
0.624630
0.610950
0.595310
0.579670
0.563050
0.546430
0.531770
0.517110
0.504400
0.493650
0.482890
0.475070
0.468230
0.462370
0.455520
0.450640
0.445750
0.440860
0.435970
0.431090
0.425220
0.420330
0.415440
0.412510
0.409580
0.406650
0.401760
0.397850
0.393940
0.390030
0.386120
0.382210
0.378300
0.374390
0.370480
0.367550
0.364610
0.362660
0.360700
0.358750
0.355820
0.353860
0.351910
0.349950
0.348000
0.347020
0.345060
0.343110
0.342130
0.341150
0.340180
0.339200
0.341150
0.346040
0.354840
0.368520
0.388070
0.412510
0.440860
0.471160
0.498530
0.522970
0.548390
0.572830
0.595310
0.614860
0.631480
0.646140
0.656890
0.665690
0.672530
0.677420
0.680350
0.682310
0.681330
0.680350
0.678400
0.675460
0.671550
0.665690
0.657870
0.650050
0.639300
0.628540
0.615840
0.604110
0.591400
0.577710
0.565000
0.551320
0.539590
0.526880
0.516130
0.507330
0.498530
0.490710
0.483870
0.478010
0.473120
0.468230
0.462370
0.457480
0.452590
0.447700
0.442820
0.437930
0.433040
0.428150
0.423260
0.419350
0.415440
0.412510
0.408600
0.405670
0.401760
0.397850
0.393940
0.390030
0.387100
0.384160
0.381230
0.378300
0.375370
0.372430
0.370480
0.367550
0.364610
0.362660
0.360700
0.357770
0.355820
0.352880
0.349950
0.347020
0.345060
0.345060
