0.599220
0.590420
0.582600
0.574780
0.566960
0.561090
0.556210
0.551320
0.547410
0.544480
0.542520
0.540570
0.538610
0.536660
0.535680
0.533720
0.532750
0.531770
0.531770
0.531770
0.531770
0.531770
0.531770
0.531770
0.531770
0.531770
0.531770
0.531770
0.530790
0.528840
0.526880
0.524930
0.522970
0.521020
0.519060
0.518080
0.517110
0.515150
0.513200
0.510260
0.508310
0.505380
0.503420
0.500490
0.496580
0.492670
0.488760
0.485830
0.483870
0.481920
0.479960
0.478980
0.478980
0.479960
0.481920
0.484850
0.488760
0.495600
0.504400
0.514170
0.524930
0.537630
0.550340
0.563050
0.575760
0.588470
0.597260
0.605080
0.612900
0.619750
0.624630
0.627570
0.629520
0.628540
0.627570
0.624630
0.620720
0.614860
0.608020
0.600200
0.591400
0.581620
0.573800
0.565000
0.557180
0.550340
0.543500
0.538610
0.533720
0.530790
0.526880
0.524930
0.522970
0.521020
0.520040
0.520040
0.519060
0.519060
0.519060
0.519060
0.518080
0.517110
0.515150
0.514170
0.512220
0.511240
0.510260
0.510260
0.508310
0.507330
0.504400
0.501470
0.498530
0.495600
0.492670
0.489740
0.486800
0.484850
0.482890
0.480940
0.478010
0.476050
0.472140
0.469210
0.466280
0.463340
0.461390
0.458460
0.457480
0.455520
0.453570
0.451610
0.449660
0.447700
0.446730
0.445750
0.447700
0.450640
0.455520
0.463340
0.472140
0.480940
0.489740
0.500490
0.512220
0.524930
0.536660
0.547410
0.558160
0.565980
0.572830
0.577710
0.580650
0.580650
0.579670
0.577710
0.575760
0.570870
0.565000
0.558160
0.550340
0.540570
0.531770
0.521990
0.513200
0.503420
0.495600
0.489740
0.484850
0.479960
0.476050
0.472140
0.469210
0.466280
0.464320
0.463340
0.463340
0.463340
0.463340
0.463340
0.463340
0.462370
0.462370
0.460410
0.459430
0.457480
0.454550
0.450640
0.447700
0.443790
0.440860
0.437930
0.436950
0.435970
0.435000
0.434020
0.422290
0.405670
0.396870
0.391980
0.388070
0.385140
0.383190
0.382210
0.380250
0.378300
0.376340
0.374390
0.372430
0.370480
0.368520
0.367550
0.366570
0.366570
0.365590
0.365590
0.366570
0.367550
0.370480
0.373410
0.379280
0.385140
0.392960
0.401760
0.412510
0.425220
0.437930
0.451610
0.462370
0.472140
0.481920
0.490710
0.498530
0.505380
0.509290
0.513200
0.514170
0.514170
0.512220
0.507330
0.501470
0.496580
0.489740
0.482890
0.475070
0.467250
0.460410
0.453570
0.447700
0.443790
0.440860
0.437930
0.436950
0.435970
0.436950
0.437930
0.438910
0.440860
0.442820
0.443790
0.443790
0.444770
0.444770
0.444770
0.444770
0.444770
0.444770
0.444770
0.444770
0.443790
0.444770
0.444770
0.444770
0.444770
0.443790
0.441840
0.440860
0.440860
0.439880
0.439880
0.439880
0.438910
0.438910
0.437930
0.436950
0.435000
0.434020
0.432060
0.431090
0.429130
0.429130
0.428150
0.428150
0.428150
0.430110
0.431090
0.433040
0.435970
0.440860
0.446730
0.453570
0.463340
0.475070
0.485830
0.497560
0.510260
0.522970
0.535680
0.547410
0.557180
0.566960
0.574780
0.580650
0.584560
0.585530
0.585530
0.583580
0.579670
0.574780
0.568910
0.561090
0.552300
0.543500
0.533720
0.523950
0.514170
0.504400
0.496580
0.490710
0.484850
0.478980
0.475070
0.471160
0.468230
0.464320
0.461390
0.457480
0.454550
0.451610
0.448680
0.446730
0.445750
0.444770
0.444770
0.443790
0.442820
0.442820
0.441840
0.440860
0.439880
0.439880
0.439880
0.440860
0.440860
0.441840
0.441840
0.440860
0.439880
0.438910
0.436950
0.435970
0.434020
0.432060
0.430110
0.428150
0.427170
0.425220
0.424240
0.422290
0.421310
0.420330
0.420330
0.421310
0.423260
0.426200
0.432060
0.439880
0.449660
0.459430
0.470190
0.482890
0.497560
0.512220
0.526880
0.540570
0.554250
0.565980
0.576740
0.586510
0.594330
0.599220
0.601170
0.603130
0.603130
0.601170
0.599220
0.595310
0.589440
0.581620
0.573800
0.563050
0.552300
0.540570
0.530790
0.521020
0.511240
0.502440
0.495600
0.489740
0.485830
0.483870
0.483870
0.484850
0.485830
0.486800
0.486800
0.487780
0.486800
0.485830
0.482890
0.480940
0.478010
0.476050
0.474100
0.472140
0.471160
0.469210
0.467250
0.464320
0.462370
0.459430
0.455520
0.452590
0.449660
0.446730
0.444770
0.442820
0.440860
0.438910
0.437930
0.435970
0.435000
0.434020
0.432060
0.429130
0.426200
0.423260
0.421310
0.420330
0.419350
0.421310
0.425220
0.437930
0.453570
0.464320
0.474100
0.485830
0.497560
0.509290
0.520040
0.529810
0.539590
0.547410
0.555230
0.562070
0.566960
0.569890
0.572830
0.574780
0.575760
0.575760
0.574780
0.572830
0.569890
0.565000
0.558160
0.551320
0.544480
0.537630
0.529810
0.522970
0.516130
0.510260
0.504400
0.499510
0.496580
0.492670
0.490710
0.487780
0.484850
0.483870
0.481920
0.480940
0.479960
0.479960
0.479960
0.479960
0.478980
0.478010
0.478010
0.477030
0.477030
0.477030
0.476050
0.475070
0.473120
0.471160
0.469210
0.468230
0.466280
0.465300
0.463340
0.462370
0.460410
0.459430
0.457480
0.456500
0.455520
0.454550
0.453570
0.452590
0.450640
0.449660
0.448680
0.446730
0.445750
0.446730
0.448680
0.451610
0.455520
0.462370
0.470190
0.479960
0.491690
0.502440
0.514170
0.524930
0.535680
0.544480
0.552300
0.557180
0.562070
0.565980
0.569890
0.571850
0.572830
0.572830
0.570870
0.567940
0.564030
0.558160
0.551320
0.545450
0.540570
0.534700
0.527860
0.521990
0.515150
0.510260
0.505380
0.501470
0.498530
0.495600
0.492670
0.491690
0.490710
0.490710
0.490710
0.490710
0.490710
0.490710
0.490710
0.490710
0.490710
0.490710
0.491690
0.491690
0.492670
0.492670
0.492670
0.491690
0.490710
0.489740
0.488760
0.486800
0.485830
0.482890
0.480940
0.478010
0.476050
0.473120
0.472140
0.471160
0.469210
0.468230
0.468230
0.468230
0.467250
0.468230
0.468230
0.468230
0.469210
0.471160
0.474100
0.478980
0.484850
0.492670
0.501470
0.511240
0.522970
0.532750
0.542520
0.551320
0.559140
0.566960
0.571850
0.575760
0.578690
0.580650
0.581620
0.580650
0.577710
0.573800
0.568910
0.563050
0.556210
0.549360
0.543500
0.537630
0.532750
0.527860
0.522970
0.518080
0.514170
0.510260
0.507330
0.504400
0.502440
0.499510
0.498530
0.497560
0.496580
0.496580
0.496580
0.496580
0.496580
0.496580
0.496580
0.496580
0.496580
0.496580
0.495600
0.494620
0.493650
0.491690
0.489740
0.488760
0.486800
0.484850
0.483870
0.481920
0.480940
0.478980
0.477030
0.475070
0.473120
0.471160
0.469210
0.468230
0.466280
0.465300
0.463340
0.462370
0.462370
0.462370
0.463340
0.464320
0.465300
0.466280
0.468230
0.472140
0.478010
0.485830
0.494620
0.504400
0.515150
0.525900
0.536660
0.545450
0.554250
0.560120
0.565000
0.568910
0.571850
0.573800
0.573800
0.573800
0.571850
0.568910
0.565000
0.560120
0.555230
0.551320
0.546430
0.540570
0.532750
0.524930
0.517110
0.506350
0.492670
0.482890
0.476050
0.471160
0.467250
0.464320
0.462370
0.461390
0.460410
0.460410
0.460410
0.461390
0.461390
0.462370
0.462370
0.462370
0.462370
0.461390
0.461390
0.459430
0.457480
0.454550
0.451610
0.449660
0.446730
0.444770
0.443790
0.442820
0.440860
0.438910
0.436950
0.435970
0.435000
0.433040
0.431090
0.430110
0.428150
0.425220
0.422290
0.419350
0.416420
0.414470
0.413490
0.412510
0.413490
0.414470
0.416420
0.417400
0.420330
0.423260
0.429130
0.436950
0.446730
0.457480
0.470190
0.481920
0.491690
0.502440
0.514170
0.524930
0.533720
0.541540
0.547410
0.551320
0.554250
0.553270
0.551320
0.548390
0.544480
0.540570
0.533720
0.526880
0.517110
0.507330
0.496580
0.486800
0.478010
0.470190
0.463340
0.458460
0.454550
0.451610
0.448680
0.447700
0.446730
0.446730
0.446730
0.446730
0.446730
0.446730
0.446730
0.445750
0.443790
0.443790
0.441840
0.439880
0.438910
0.436950
0.435000
0.433040
0.432060
0.430110
0.429130
0.428150
0.427170
0.426200
0.425220
0.424240
0.422290
0.420330
0.418380
0.416420
0.414470
0.412510
0.410560
0.408600
0.406650
0.405670
0.403710
0.402740
0.401760
0.399800
0.397850
0.396870
0.394920
0.392960
0.391980
0.391980
0.392960
0.396870
0.401760
0.408600
0.417400
0.428150
0.439880
0.452590
0.466280
0.478980
0.488760
0.497560
0.505380
0.510260
0.513200
0.514170
0.513200
0.511240
0.507330
0.501470
0.494620
0.485830
0.477030
0.466280
0.456500
0.446730
0.436950
0.430110
0.423260
0.415440
0.408600
0.402740
0.396870
0.391980
0.387100
0.384160
0.383190
0.382210
0.382210
0.382210
0.383190
0.383190
0.383190
0.383190
0.383190
0.383190
0.383190
0.383190
0.382210
0.382210
0.382210
0.382210
0.382210
0.382210
0.382210
0.381230
0.379280
0.378300
0.376340
0.374390
0.371460
0.368520
0.365590
0.363640
0.360700
0.358750
0.357770
0.356790
0.353860
0.350930
0.348000
0.345060
0.342130
0.339200
0.337240
0.337240
0.336270
0.336270
0.337240
0.338220
0.339200
0.342130
0.348000
0.355820
0.365590
0.378300
0.391980
0.406650
0.421310
0.435000
0.445750
0.454550
0.462370
0.470190
0.476050
0.478980
0.480940
0.481920
0.481920
0.480940
0.478010
0.472140
0.467250
0.461390
0.453570
0.445750
0.436950
0.429130
0.422290
0.417400
0.412510
0.409580
0.407620
0.406650
0.405670
0.405670
0.404690
0.402740
0.401760
0.399800
0.397850
0.396870
0.396870
0.398830
0.402740
0.408600
0.414470
0.433040
0.458460
0.473120
0.481920
0.485830
0.486800
0.485830
0.484850
0.482890
0.481920
0.480940
0.480940
0.481920
0.483870
0.484850
0.486800
0.487780
0.487780
0.487780
0.486800
0.486800
0.486800
0.485830
0.485830
0.484850
0.484850
0.484850
0.483870
0.483870
0.484850
0.485830
0.486800
0.488760
0.492670
0.499510
0.509290
0.521020
0.531770
0.542520
0.555230
0.568910
0.581620
0.591400
0.600200
0.606060
0.610950
0.614860
0.617790
0.618770
0.618770
0.618770
0.616810
0.612900
0.608990
0.602150
0.595310
0.586510
0.577710
0.568910
0.560120
0.551320
0.543500
0.537630
0.532750
0.527860
0.523950
0.521020
0.519060
0.518080
0.518080
0.517110
0.517110
0.516130
0.515150
0.514170
0.514170
0.514170
0.514170
0.514170
0.514170
0.514170
0.514170
0.513200
0.512220
0.510260
0.507330
0.504400
0.501470
0.498530
0.495600
0.492670
0.490710
0.489740
0.487780
0.486800
0.486800
0.485830
0.485830
0.484850
0.484850
0.485830
0.485830
0.484850
0.482890
0.481920
0.479960
0.478010
0.476050
0.475070
0.475070
0.477030
0.480940
0.484850
0.489740
0.497560
0.508310
0.521020
0.536660
0.551320
0.565980
0.579670
0.590420
0.599220
0.604110
0.608020
0.608990
0.608990
0.608990
0.608990
0.608020
0.608020
0.607040
0.606060
0.603130
0.599220
0.593350
0.585530
0.577710
0.567940
0.557180
0.545450
0.534700
0.524930
0.518080
0.512220
0.509290
0.508310
0.508310
0.508310
0.509290
0.510260
0.510260
0.510260
0.510260
0.510260
0.510260
0.510260
0.510260
0.509290
0.508310
0.506350
0.505380
0.505380
0.505380
0.505380
0.504400
0.503420
0.502440
0.501470
0.499510
0.498530
0.497560
0.495600
0.493650
0.491690
0.490710
0.489740
0.488760
0.487780
0.487780
0.487780
0.487780
0.487780
0.486800
0.485830
0.484850
0.484850
0.485830
0.486800
0.488760
0.489740
0.490710
0.490710
0.491690
0.494620
0.499510
0.507330
0.518080
0.530790
0.545450
0.558160
0.569890
0.581620
0.593350
0.605080
0.614860
0.622680
0.629520
0.633430
0.636360
0.637340
0.638320
0.637340
0.635390
0.631480
0.626590
0.619750
0.610950
0.603130
0.594330
0.585530
0.576740
0.567940
0.560120
0.553270
0.548390
0.545450
0.541540
0.539590
0.537630
0.536660
0.535680
0.534700
0.534700
0.534700
0.534700
0.534700
0.535680
0.537630
0.538610
0.539590
0.539590
0.539590
0.539590
0.537630
0.536660
0.533720
0.531770
0.529810
0.528840
0.526880
0.525900
0.524930
0.523950
0.521990
0.519060
0.498530
0.469210
0.451610
0.440860
0.434020
0.428150
0.423260
0.420330
0.417400
0.415440
0.413490
0.413490
0.413490
0.413490
0.412510
0.412510
0.412510
0.412510
0.412510
0.413490
0.415440
0.420330
0.428150
0.438910
0.452590
0.468230
0.486800
0.505380
0.523950
0.542520
0.558160
0.570870
0.582600
0.593350
0.603130
0.610950
0.615840
0.617790
0.618770
0.617790
0.613880
0.608020
0.600200
0.590420
0.580650
0.568910
0.557180
0.545450
0.534700
0.522970
0.511240
0.500490
0.492670
0.486800
0.483870
0.481920
0.480940
0.480940
0.479960
0.480940
0.481920
0.483870
0.483870
0.484850
0.484850
0.484850
0.484850
0.484850
0.484850
0.483870
0.482890
0.479960
0.477030
0.473120
0.470190
0.466280
0.463340
0.460410
0.456500
0.453570
0.449660
0.445750
0.442820
0.439880
0.436950
0.434020
0.430110
0.426200
0.422290
0.418380
0.415440
0.413490
0.412510
0.412510
0.412510
0.411530
0.411530
0.410560
0.409580
0.409580
0.409580
0.410560
0.412510
0.415440
0.419350
0.426200
0.434020
0.443790
0.458460
0.475070
0.494620
0.516130
0.535680
0.555230
0.572830
0.588470
0.603130
0.613880
0.620720
0.624630
0.626590
0.626590
0.624630
0.620720
0.614860
0.608020
0.599220
0.589440
0.577710
0.565000
0.553270
0.542520
0.532750
0.521990
0.511240
0.500490
0.489740
0.481920
0.475070
0.469210
0.464320
0.460410
0.456500
0.454550
0.453570
0.451610
0.449660
0.448680
0.447700
0.443790
0.439880
0.435970
0.432060
0.427170
0.422290
0.418380
0.415440
0.411530
0.406650
0.399800
0.394920
0.390030
0.385140
0.380250
0.377320
0.374390
0.371460
0.368520
0.366570
0.365590
0.362660
0.359730
0.354840
0.349950
0.345060
0.342130
0.341150
0.340180
0.340180
0.340180
0.340180
0.340180
0.341150
0.342130
0.342130
0.343110
0.344090
0.347020
0.350930
0.357770
0.367550
0.382210
0.399800
0.417400
0.435000
0.455520
0.476050
0.497560
0.517110
0.535680
0.551320
0.564030
0.574780
0.582600
0.587490
0.587490
0.585530
0.579670
0.571850
0.560120
0.547410
0.532750
0.517110
0.503420
0.491690
0.480940
0.471160
0.463340
0.457480
0.452590
0.447700
0.443790
0.438910
0.434020
0.429130
0.423260
0.419350
0.416420
0.414470
0.414470
0.413490
0.414470
0.414470
0.416420
0.418380
0.419350
0.419350
0.417400
0.415440
0.413490
0.412510
0.412510
0.412510
0.413490
0.413490
0.412510
0.411530
0.409580
0.407620
0.405670
0.404690
0.404690
0.405670
0.406650
0.406650
0.406650
0.415440
0.428150
0.433040
0.435970
0.435970
0.435970
0.434020
0.433040
0.432060
0.433040
0.434020
0.435970
0.439880
0.443790
0.449660
0.458460
0.469210
0.481920
0.495600
0.512220
0.528840
0.546430
0.563050
0.577710
0.590420
0.599220
0.608020
0.614860
0.620720
0.623660
0.626590
0.627570
0.627570
0.625610
0.621700
0.616810
0.609970
0.602150
0.594330
0.585530
0.574780
0.565000
0.556210
0.548390
0.541540
0.535680
0.530790
0.527860
0.524930
0.522970
0.521020
0.519060
0.518080
0.516130
0.515150
0.514170
0.515150
0.516130
0.517110
0.517110
0.517110
0.516130
0.515150
0.512220
0.508310
0.504400
0.501470
0.498530
0.496580
0.494620
0.494620
0.493650
0.493650
0.493650
0.494620
0.494620
0.494620
0.493650
0.490710
0.487780
0.484850
0.480940
0.478010
0.474100
0.471160
0.467250
0.464320
0.460410
0.457480
0.454550
0.451610
0.449660
0.449660
0.452590
0.458460
0.466280
0.478010
0.491690
0.508310
0.522970
0.537630
0.553270
0.569890
0.586510
0.602150
0.615840
0.628540
0.640270
0.650050
0.657870
0.662760
0.664710
0.664710
0.663730
0.661780
0.658850
0.653960
0.647120
0.638320
0.627570
0.616810
0.605080
0.594330
0.583580
0.573800
0.565000
0.557180
0.550340
0.544480
0.539590
0.535680
0.532750
0.529810
0.527860
0.525900
0.523950
0.522970
0.521020
0.519060
0.519060
0.518080
0.518080
0.517110
0.517110
0.516130
0.515150
0.513200
0.510260
0.506350
0.503420
0.500490
0.496580
0.493650
0.491690
0.490710
0.490710
0.490710
0.490710
0.490710
0.490710
0.489740
0.487780
0.485830
0.483870
0.480940
0.478010
0.477030
0.477030
0.476050
0.476050
0.476050
0.476050
0.476050
0.476050
0.476050
0.476050
0.477030
0.479960
0.485830
0.494620
0.506350
0.521020
0.538610
0.558160
0.577710
0.596290
0.610950
0.622680
0.634410
0.644180
0.652980
0.657870
0.660800
0.661780
0.660800
0.659820
0.657870
0.653960
0.649070
0.642230
0.634410
0.625610
0.615840
0.605080
0.595310
0.584560
0.573800
0.564030
0.556210
0.550340
0.544480
0.538610
0.534700
0.529810
0.526880
0.524930
0.521020
0.518080
0.514170
0.511240
0.507330
0.503420
0.499510
0.495600
0.493650
0.490710
0.487780
0.485830
0.482890
0.478980
0.476050
0.472140
0.469210
0.465300
0.460410
0.456500
0.452590
0.449660
0.446730
0.443790
0.439880
0.436950
0.432060
0.427170
0.422290
0.417400
0.412510
0.406650
0.402740
0.399800
0.396870
0.394920
0.392960
0.391010
0.390030
0.389050
0.389050
0.391010
0.391980
0.394920
0.398830
0.404690
0.411530
0.420330
0.431090
0.443790
0.457480
0.471160
0.484850
0.497560
0.509290
0.519060
0.527860
0.534700
0.538610
0.541540
0.542520
0.542520
0.540570
0.536660
0.530790
0.523950
0.517110
0.509290
0.501470
0.493650
0.486800
0.480940
0.475070
0.470190
0.464320
0.459430
0.454550
0.451610
0.448680
0.445750
0.442820
0.439880
0.436950
0.435970
0.435000
0.434020
0.433040
0.433040
0.433040
0.434020
0.435000
0.435000
0.435970
0.435000
0.435000
0.434020
0.433040
0.432060
0.432060
0.432060
0.431090
0.430110
0.429130
0.428150
0.427170
0.425220
0.422290
0.419350
0.416420
0.414470
0.411530
0.408600
0.406650
0.402740
0.399800
0.396870
0.394920
0.393940
0.392960
0.391980
0.391980
0.392960
0.392960
0.392960
0.393940
0.395890
0.398830
0.404690
0.412510
0.422290
0.433040
0.444770
0.456500
0.466280
0.475070
0.482890
0.490710
0.496580
0.501470
0.505380
0.508310
0.510260
0.510260
0.507330
0.502440
0.497560
0.491690
0.484850
0.478010
0.469210
0.460410
0.450640
0.440860
0.431090
0.422290
0.413490
0.405670
0.398830
0.394920
0.391980
0.389050
0.386120
0.385140
0.384160
0.382210
0.381230
0.378300
0.377320
0.375370
0.373410
0.372430
0.371460
0.370480
0.369500
0.367550
0.365590
0.363640
0.360700
0.358750
0.355820
0.353860
0.351910
0.349950
0.348970
0.348970
0.348000
0.347020
0.345060
0.344090
0.341150
0.339200
0.337240
0.336270
0.334310
0.331380
0.330400
0.329420
0.328450
0.325510
0.323560
0.320630
0.318670
0.315740
0.314760
0.313780
0.313780
0.314760
0.317690
0.322580
0.328450
0.336270
0.347020
0.359730
0.373410
0.387100
0.402740
0.417400
0.432060
0.445750
0.458460
0.467250
0.474100
0.479960
0.483870
0.485830
0.484850
0.483870
0.479960
0.476050
0.470190
0.463340
0.455520
0.448680
0.441840
0.435000
0.427170
0.418380
0.409580
0.401760
0.395890
0.390030
0.386120
0.383190
0.381230
0.381230
0.382210
0.384160
0.386120
0.389050
0.391010
0.392960
0.394920
0.396870
0.397850
0.398830
0.398830
0.398830
0.397850
0.397850
0.396870
0.395890
0.394920
0.393940
0.393940
0.392960
0.392960
0.392960
0.392960
0.392960
0.392960
0.392960
0.392960
0.392960
0.392960
0.392960
0.392960
0.392960
0.392960
0.392960
0.392960
0.392960
0.392960
0.392960
0.392960
0.392960
0.392960
0.393940
0.394920
0.396870
0.400780
0.406650
0.414470
0.424240
0.436950
0.450640
0.464320
0.494620
0.534700
0.561090
0.581620
0.597260
0.610950
0.621700
0.629520
0.635390
0.639300
0.641250
0.640270
0.638320
0.634410
0.629520
0.623660
0.617790
0.609970
0.602150
0.595310
0.588470
0.581620
0.573800
0.566960
0.561090
0.556210
0.551320
0.548390
0.546430
0.545450
0.545450
0.544480
0.544480
0.544480
0.545450
0.546430
0.546430
0.547410
0.547410
0.547410
0.547410
0.547410
0.547410
0.547410
0.547410
0.547410
0.546430
0.546430
0.545450
0.544480
0.543500
0.541540
0.539590
0.538610
0.536660
0.533720
0.531770
0.528840
0.525900
0.523950
0.521990
0.520040
0.518080
0.517110
0.515150
0.513200
0.512220
0.511240
0.510260
0.509290
0.508310
0.508310
0.507330
0.507330
0.507330
0.509290
0.512220
0.517110
0.524930
0.534700
0.546430
0.560120
0.574780
0.590420
0.607040
0.622680
0.635390
0.645160
0.654940
0.662760
0.668620
0.672530
0.674490
0.674490
0.673510
0.671550
0.668620
0.664710
0.659820
0.653960
0.646140
0.638320
0.628540
0.618770
0.608990
0.600200
0.592380
0.584560
0.577710
0.571850
0.566960
0.563050
0.560120
0.558160
0.556210
0.555230
0.554250
0.555230
0.556210
0.557180
0.558160
0.559140
0.560120
0.560120
0.559140
0.558160
0.556210
0.553270
0.549360
0.545450
0.541540
0.536660
0.533720
0.530790
0.528840
0.527860
0.526880
0.525900
0.524930
0.524930
0.523950
0.521990
0.521020
0.519060
0.518080
0.515150
0.513200
0.510260
0.509290
0.507330
0.506350
0.505380
0.504400
0.502440
0.501470
0.502440
0.503420
0.504400
0.505380
0.506350
0.509290
0.513200
0.518080
0.525900
0.536660
0.549360
0.563050
0.578690
0.594330
0.608990
0.622680
0.635390
0.646140
0.654940
0.661780
0.667640
0.672530
0.675460
0.675460
0.674490
0.671550
0.666670
0.660800
0.653960
0.645160
0.634410
0.625610
0.616810
0.608020
0.599220
0.591400
0.584560
0.577710
0.571850
0.566960
0.563050
0.559140
0.556210
0.554250
0.553270
0.551320
0.550340
0.550340
0.549360
0.548390
0.547410
0.547410
0.547410
0.547410
0.547410
0.547410
0.546430
0.546430
0.544480
0.542520
0.540570
0.537630
0.534700
0.530790
0.527860
0.524930
0.522970
0.520040
0.518080
0.517110
0.516130
0.514170
0.512220
0.510260
0.508310
0.506350
0.505380
0.504400
0.502440
0.501470
0.500490
0.499510
0.498530
0.497560
0.497560
0.497560
0.497560
0.498530
0.499510
0.501470
0.505380
0.511240
0.519060
0.527860
0.536660
0.549360
0.564030
0.579670
0.594330
0.608990
0.621700
0.613880
0.595310
0.589440
0.589440
0.591400
0.592380
0.591400
0.590420
0.587490
0.583580
0.576740
0.567940
0.559140
0.549360
0.538610
0.526880
0.515150
0.505380
0.495600
0.485830
0.477030
0.469210
0.463340
0.458460
0.455520
0.453570
0.452590
0.451610
0.451610
0.451610
0.451610
0.451610
0.451610
0.451610
0.451610
0.451610
0.451610
0.451610
0.451610
0.450640
0.449660
0.448680
0.447700
0.445750
0.443790
0.441840
0.439880
0.437930
0.435970
0.435000
0.433040
0.431090
0.430110
0.428150
0.426200
0.425220
0.423260
0.421310
0.419350
0.417400
0.414470
0.411530
0.408600
0.406650
0.404690
0.402740
0.400780
0.399800
0.398830
0.397850
0.398830
0.399800
0.400780
0.402740
0.406650
0.412510
0.422290
0.434020
0.447700
0.463340
0.477030
0.489740
0.502440
0.515150
0.526880
0.536660
0.544480
0.549360
0.551320
0.551320
0.548390
0.544480
0.539590
0.533720
0.525900
0.518080
0.509290
0.500490
0.490710
0.480940
0.470190
0.460410
0.449660
0.437930
0.427170
0.417400
0.408600
0.399800
0.391980
0.385140
0.379280
0.376340
0.374390
0.373410
0.372430
0.372430
0.371460
0.371460
0.370480
0.369500
0.367550
0.365590
0.362660
0.359730
0.355820
0.352880
0.349950
0.347020
0.343110
0.341150
0.339200
0.337240
0.334310
0.331380
0.330400
0.328450
0.327470
0.325510
0.323560
0.321600
0.317690
0.312810
0.309870
0.306940
0.305960
0.304010
0.303030
0.303030
0.304010
0.304990
0.305960
0.305960
0.305960
0.305960
0.306940
0.306940
0.307920
0.309870
0.313780
0.319650
0.327470
0.337240
0.349950
0.362660
0.378300
0.393940
0.408600
0.420330
0.431090
0.441840
0.451610
0.459430
0.465300
0.469210
0.469210
0.468230
0.464320
0.458460
0.452590
0.446730
0.441840
0.434020
0.425220
0.416420
0.407620
0.399800
0.392960
0.385140
0.378300
0.371460
0.364610
0.359730
0.356790
0.354840
0.353860
0.354840
0.355820
0.356790
0.358750
0.359730
0.358750
0.358750
0.357770
0.357770
0.357770
0.357770
0.357770
0.357770
0.357770
0.356790
0.355820
0.355820
0.354840
0.354840
0.354840
0.354840
0.354840
0.354840
0.354840
0.354840
0.354840
0.354840
0.354840
0.354840
0.354840
0.354840
0.354840
0.354840
0.354840
0.354840
0.354840
0.354840
0.354840
0.354840
0.354840
0.354840
0.355820
0.359730
0.364610
0.368520
0.376340
0.386120
0.395890
0.406650
0.419350
0.434020
0.448680
0.463340
0.478010
0.491690
0.503420
0.512220
0.519060
0.523950
0.527860
0.529810
0.537630
0.550340
0.555230
0.556210
0.554250
0.550340
0.545450
0.539590
0.533720
0.526880
0.520040
0.514170
0.509290
0.505380
0.500490
0.497560
0.495600
0.493650
0.492670
0.492670
0.492670
0.492670
0.492670
0.493650
0.494620
0.496580
0.498530
0.500490
0.501470
0.502440
0.502440
0.501470
0.499510
0.498530
0.497560
0.497560
0.496580
0.496580
0.496580
0.496580
0.496580
0.494620
0.492670
0.491690
0.489740
0.487780
0.485830
0.483870
0.482890
0.480940
0.479960
0.478010
0.475070
0.473120
0.471160
0.469210
0.468230
0.467250
0.467250
0.466280
0.467250
0.468230
0.469210
0.472140
0.476050
0.482890
0.491690
0.501470
0.514170
0.526880
0.539590
0.552300
0.564030
0.572830
0.579670
0.586510
0.592380
0.597260
0.600200
0.602150
0.603130
0.602150
0.600200
0.597260
0.593350
0.589440
0.584560
0.578690
0.571850
0.565980
0.558160
0.551320
0.544480
0.537630
0.531770
0.525900
0.521020
0.517110
0.513200
0.511240
0.509290
0.508310
0.507330
0.505380
0.504400
0.503420
0.503420
0.502440
0.502440
0.500490
0.500490
0.499510
0.498530
0.498530
0.498530
0.498530
0.497560
0.496580
0.494620
0.492670
0.490710
0.488760
0.485830
0.483870
0.482890
0.480940
0.479960
0.478010
0.475070
0.473120
0.471160
0.469210
0.467250
0.466280
0.465300
0.464320
0.463340
0.462370
0.462370
0.463340
0.464320
0.465300
0.466280
0.468230
0.473120
0.478980
0.485830
0.495600
0.504400
0.514170
0.524930
0.535680
0.547410
0.559140
0.568910
0.578690
0.586510
0.593350
0.598240
0.602150
0.605080
0.606060
0.606060
0.605080
0.602150
0.598240
0.593350
0.586510
0.578690
0.571850
0.565000
0.557180
0.550340
0.544480
0.538610
0.533720
0.527860
0.522970
0.518080
0.514170
0.511240
0.509290
0.507330
0.505380
0.504400
0.503420
0.503420
0.502440
0.502440
0.502440
0.502440
0.501470
0.500490
0.499510
0.499510
0.499510
0.499510
0.499510
0.499510
0.498530
0.497560
0.496580
0.493650
0.490710
0.486800
0.481920
0.478010
0.474100
0.471160
0.468230
0.467250
0.467250
0.468230
0.469210
0.470190
0.471160
0.471160
0.470190
0.469210
0.466280
0.463340
0.460410
0.457480
0.455520
0.454550
0.456500
0.459430
0.465300
0.473120
0.483870
0.495600
0.507330
0.522970
0.539590
0.551320
0.558160
0.566960
0.576740
0.583580
0.588470
0.592380
0.594330
0.595310
0.595310
0.594330
0.592380
0.588470
0.584560
0.578690
0.571850
0.565000
0.559140
0.553270
0.545450
0.538610
0.531770
0.516130
0.495600
0.481920
0.472140
0.465300
0.461390
0.458460
0.455520
0.454550
0.453570
0.453570
0.453570
0.453570
0.453570
0.453570
0.454550
0.454550
0.454550
0.454550
0.454550
0.452590
0.451610
0.449660
0.447700
0.443790
0.439880
0.436950
0.435000
0.433040
0.430110
0.428150
0.426200
0.424240
0.421310
0.418380
0.414470
0.412510
0.409580
0.407620
0.406650
0.405670
0.403710
0.401760
0.399800
0.397850
0.394920
0.393940
0.391980
0.391010
0.391010
0.391980
0.394920
0.399800
0.403710
0.409580
0.417400
0.428150
0.442820
0.458460
0.477030
0.496580
0.515150
0.533720
0.549360
0.564030
0.574780
0.581620
0.588470
0.593350
0.596290
0.597260
0.596290
0.592380
0.587490
0.579670
0.569890
0.560120
0.549360
0.537630
0.527860
0.516130
0.505380
0.494620
0.483870
0.475070
0.468230
0.463340
0.459430
0.455520
0.452590
0.451610
0.450640
0.450640
0.449660
0.449660
0.449660
0.449660
0.449660
0.448680
0.446730
0.444770
0.443790
0.440860
0.438910
0.436950
0.435000
0.433040
0.430110
0.428150
0.425220
0.421310
0.418380
0.415440
0.412510
0.409580
0.408600
0.407620
0.405670
0.404690
0.402740
0.399800
0.397850
0.393940
0.391980
0.390030
0.388070
0.386120
0.384160
0.383190
0.381230
0.378300
0.375370
0.372430
0.368520
0.365590
0.363640
0.363640
0.365590
0.369500
0.377320
0.387100
0.397850
0.410560
0.427170
0.444770
0.462370
0.480940
0.497560
0.512220
0.522970
0.531770
0.539590
0.543500
0.546430
0.546430
0.545450
0.542520
0.537630
0.529810
0.521020
0.512220
0.501470
0.489740
0.478980
0.467250
0.458460
0.449660
0.440860
0.432060
0.423260
0.416420
0.410560
0.405670
0.402740
0.399800
0.397850
0.396870
0.396870
0.396870
0.397850
0.397850
0.397850
0.398830
0.398830
0.397850
0.396870
0.395890
0.393940
0.392960
0.391010
0.390030
0.389050
0.387100
0.386120
0.384160
0.383190
0.381230
0.379280
0.376340
0.373410
0.369500
0.366570
0.362660
0.359730
0.357770
0.354840
0.352880
0.350930
0.348970
0.348000
0.347020
0.346040
0.346040
0.345060
0.344090
0.345060
0.345060
0.345060
0.346040
0.348000
0.351910
0.357770
0.367550
0.380250
0.395890
0.412510
0.431090
0.450640
0.467250
0.481920
0.498530
0.514170
0.528840
0.541540
0.552300
0.560120
0.565980
0.570870
0.573800
0.573800
0.572830
0.569890
0.565980
0.562070
0.555230
0.546430
0.535680
0.522970
0.509290
0.495600
0.482890
0.471160
0.461390
0.453570
0.448680
0.452590
0.462370
0.468230
0.472140
0.476050
0.478980
0.481920
0.483870
0.484850
0.484850
0.484850
0.484850
0.483870
0.481920
0.479960
0.478010
0.477030
0.476050
0.476050
0.476050
0.476050
0.475070
0.473120
0.471160
0.469210
0.466280
0.464320
0.461390
0.458460
0.455520
0.452590
0.449660
0.447700
0.445750
0.443790
0.442820
0.441840
0.440860
0.438910
0.437930
0.436950
0.435000
0.434020
0.435000
0.435970
0.439880
0.444770
0.450640
0.457480
0.467250
0.479960
0.493650
0.509290
0.525900
0.542520
0.559140
0.574780
0.588470
0.601170
0.611930
0.618770
0.623660
0.627570
0.630500
0.631480
0.630500
0.627570
0.622680
0.616810
0.608990
0.599220
0.588470
0.578690
0.568910
0.558160
0.548390
0.539590
0.530790
0.523950
0.517110
0.511240
0.506350
0.502440
0.497560
0.493650
0.491690
0.490710
0.490710
0.489740
0.489740
0.488760
0.487780
0.485830
0.483870
0.481920
0.480940
0.478980
0.477030
0.475070
0.473120
0.470190
0.468230
0.466280
0.463340
0.461390
0.458460
0.455520
0.452590
0.448680
0.444770
0.440860
0.438910
0.435970
0.434020
0.431090
0.428150
0.425220
0.422290
0.420330
0.418380
0.416420
0.414470
0.413490
0.412510
0.410560
0.410560
0.410560
0.412510
0.416420
0.423260
0.433040
0.444770
0.458460
0.475070
0.492670
0.509290
0.523950
0.540570
0.556210
0.571850
0.586510
0.599220
0.608990
0.615840
0.620720
0.622680
0.623660
0.621700
0.618770
0.613880
0.608020
0.600200
0.591400
0.580650
0.569890
0.557180
0.545450
0.534700
0.524930
0.515150
0.507330
0.501470
0.494620
0.489740
0.485830
0.481920
0.478980
0.476050
0.473120
0.470190
0.468230
0.467250
0.465300
0.465300
0.464320
0.463340
0.461390
0.459430
0.456500
0.453570
0.450640
0.447700
0.445750
0.442820
0.439880
0.437930
0.435970
0.433040
0.429130
0.426200
0.423260
0.421310
0.420330
0.418380
0.416420
0.412510
0.409580
0.407620
0.405670
0.402740
0.399800
0.397850
0.394920
0.393940
0.391980
0.391010
0.391010
0.391010
0.391010
0.392960
0.396870
0.400780
0.405670
0.413490
0.424240
0.437930
0.452590
0.469210
0.486800
0.505380
0.522970
0.539590
0.554250
0.565000
0.575760
0.584560
0.591400
0.596290
0.599220
0.599220
0.597260
0.593350
0.587490
0.580650
0.572830
0.565000
0.555230
0.543500
0.531770
0.520040
0.509290
0.498530
0.488760
0.480940
0.473120
0.467250
0.462370
0.459430
0.457480
0.456500
0.456500
0.455520
0.453570
0.452590
0.451610
0.450640
0.445750
0.439880
0.435970
0.434020
0.432060
0.431090
0.430110
0.428150
0.426200
0.424240
0.423260
0.421310
0.419350
0.417400
0.415440
0.413490
0.411530
0.408600
0.405670
0.401760
0.396870
0.392960
0.389050
0.386120
0.384160
0.382210
0.380250
0.378300
0.376340
0.375370
0.374390
0.372430
0.369500
0.367550
0.366570
0.365590
0.364610
0.365590
0.366570
0.369500
0.374390
0.381230
0.389050
0.399800
0.412510
0.427170
0.443790
0.461390
0.478980
0.495600
0.511240
0.525900
0.537630
0.547410
0.553270
0.559140
0.563050
0.564030
0.564030
0.561090
0.556210
0.549360
0.541540
0.532750
0.522970
0.512220
0.503420
0.494620
0.485830
0.477030
0.469210
0.461390
0.454550
0.447700
0.441840
0.436950
0.433040
0.431090
0.429130
0.428150
0.428150
0.429130
0.429130
0.429130
0.428150
0.427170
0.425220
0.423260
0.421310
0.418380
0.415440
0.413490
0.411530
0.409580
0.407620
0.405670
0.402740
0.399800
0.396870
0.392960
0.389050
0.385140
0.382210
0.380250
0.378300
0.375370
0.373410
0.370480
0.367550
0.364610
0.361680
0.358750
0.355820
0.352880
0.349950
0.347020
0.345060
0.343110
0.342130
0.340180
0.339200
0.338220
0.337240
0.338220
0.340180
0.343110
0.347020
0.353860
0.360700
0.369500
0.381230
0.393940
0.407620
0.422290
0.435970
0.448680
0.460410
0.470190
0.478980
0.484850
0.489740
0.491690
0.491690
0.489740
0.485830
0.480940
0.474100
0.467250
0.458460
0.448680
0.438910
0.429130
0.421310
0.414470
0.407620
0.401760
0.394920
0.390030
0.386120
0.383190
0.379280
0.376340
0.374390
0.373410
0.372430
0.372430
0.372430
0.373410
0.373410
0.373410
0.373410
0.373410
0.373410
0.373410
0.373410
0.373410
0.373410
0.373410
0.373410
0.373410
0.372430
0.370480
0.368520
0.365590
0.362660
0.359730
0.356790
0.353860
0.349950
0.346040
0.343110
0.340180
0.338220
0.335290
0.333330
0.332360
0.330400
0.328450
0.327470
0.325510
0.324540
0.322580
0.321600
0.320630
0.321600
0.322580
0.323560
0.325510
0.328450
0.333330
0.339200
0.346040
0.353860
0.363640
0.374390
0.383190
0.391980
0.401760
0.411530
0.420330
0.429130
0.436950
0.443790
0.450640
0.455520
0.459430
0.461390
0.461390
0.459430
0.456500
0.451610
0.444770
0.436950
0.428150
0.420330
0.411530
0.403710
0.396870
0.391010
0.387100
0.385140
0.384160
0.384160
0.384160
0.386120
0.387100
0.389050
0.390030
0.391980
0.392960
0.394920
0.395890
0.395890
0.395890
0.396870
0.396870
0.412510
0.435000
0.446730
0.453570
0.457480
0.460410
0.462370
0.464320
0.465300
0.465300
0.464320
0.463340
0.462370
0.461390
0.459430
0.458460
0.457480
0.456500
0.455520
0.456500
0.456500
0.455520
0.455520
0.455520
0.454550
0.454550
0.454550
0.454550
0.454550
0.455520
0.457480
0.458460
0.461390
0.465300
0.471160
0.478010
0.486800
0.498530
0.511240
0.524930
0.537630
0.551320
0.564030
0.574780
0.584560
0.591400
0.597260
0.600200
0.603130
0.605080
0.607040
0.608990
0.608990
0.608990
0.607040
0.603130
0.596290
0.588470
0.578690
0.569890
0.561090
0.552300
0.544480
0.536660
0.530790
0.525900
0.521990
0.519060
0.517110
0.516130
0.516130
0.516130
0.516130
0.517110
0.517110
0.516130
0.515150
0.514170
0.512220
0.511240
0.509290
0.508310
0.507330
0.506350
0.506350
0.506350
0.505380
0.503420
0.501470
0.498530
0.495600
0.492670
0.490710
0.487780
0.485830
0.483870
0.481920
0.479960
0.478980
0.478010
0.476050
0.475070
0.473120
0.472140
0.470190
0.469210
0.467250
0.466280
0.464320
0.464320
0.465300
0.466280
0.468230
0.472140
0.478010
0.485830
0.495600
0.506350
0.518080
0.529810
0.543500
0.556210
0.566960
0.575760
0.584560
0.593350
0.600200
0.606060
0.609970
0.613880
0.615840
0.615840
0.613880
0.611930
0.608020
0.604110
0.597260
0.589440
0.582600
0.574780
0.567940
0.560120
0.553270
0.545450
0.538610
0.533720
0.529810
0.526880
0.523950
0.521020
0.518080
0.516130
0.515150
0.514170
0.514170
0.514170
0.515150
0.515150
0.515150
0.515150
0.515150
0.515150
0.515150
0.514170
0.514170
0.514170
0.513200
0.512220
0.511240
0.510260
0.508310
0.506350
0.504400
0.502440
0.500490
0.497560
0.494620
0.491690
0.489740
0.488760
0.486800
0.484850
0.483870
0.481920
0.480940
0.479960
0.478980
0.478010
0.476050
0.475070
0.473120
0.472140
0.472140
0.473120
0.476050
0.480940
0.486800
0.493650
0.503420
0.516130
0.528840
0.542520
0.557180
0.570870
0.583580
0.595310
0.605080
0.613880
0.619750
0.622680
0.624630
0.625610
0.625610
0.624630
0.622680
0.618770
0.613880
0.608020
0.599220
0.590420
0.581620
0.573800
0.566960
0.560120
0.553270
0.545450
0.538610
0.533720
0.529810
0.525900
0.522970
0.521020
0.519060
0.519060
0.519060
0.518080
0.519060
0.520040
0.521020
0.521990
0.521990
0.522970
0.521990
0.520040
0.518080
0.515150
0.513200
0.511240
0.509290
0.507330
0.505380
0.503420
0.501470
0.500490
0.498530
0.495600
0.478010
0.452590
0.438910
0.432060
0.427170
0.424240
0.421310
0.417400
0.413490
0.410560
0.406650
0.404690
0.401760
0.399800
0.397850
0.395890
0.395890
0.396870
0.397850
0.400780
0.404690
0.409580
0.415440
0.423260
0.433040
0.445750
0.461390
0.479960
0.495600
0.510260
0.527860
0.544480
0.560120
0.573800
0.585530
0.594330
0.600200
0.604110
0.605080
0.604110
0.602150
0.597260
0.590420
0.583580
0.574780
0.565000
0.554250
0.542520
0.530790
0.518080
0.507330
0.497560
0.488760
0.480940
0.474100
0.468230
0.463340
0.458460
0.454550
0.450640
0.448680
0.448680
0.447700
0.447700
0.446730
0.444770
0.443790
0.441840
0.439880
0.439880
0.437930
0.435000
0.432060
0.428150
0.426200
0.423260
0.421310
0.418380
0.415440
0.413490
0.410560
0.406650
0.403710
0.399800
0.395890
0.390030
0.384160
0.378300
0.373410
0.369500
0.366570
0.363640
0.360700
0.357770
0.354840
0.351910
0.348970
0.345060
0.341150
0.338220
0.335290
0.331380
0.328450
0.326490
0.326490
0.326490
0.328450
0.333330
0.341150
0.351910
0.365590
0.380250
0.396870
0.414470
0.432060
0.447700
0.461390
0.476050
0.488760
0.499510
0.506350
0.509290
0.510260
0.508310
0.504400
0.499510
0.493650
0.486800
0.479960
0.473120
0.465300
0.456500
0.445750
0.434020
0.423260
0.412510
0.401760
0.392960
0.386120
0.378300
0.373410
0.368520
0.364610
0.362660
0.360700
0.360700
0.360700
0.359730
0.359730
0.359730
0.359730
0.359730
0.359730
0.359730
0.359730
0.359730
0.359730
0.359730
0.357770
0.355820
0.353860
0.350930
0.348970
0.347020
0.345060
0.345060
0.344090
0.343110
0.342130
0.341150
0.339200
0.338220
0.336270
0.334310
0.332360
0.330400
0.328450
0.327470
0.327470
0.325510
0.323560
0.320630
0.317690
0.315740
0.312810
0.310850
0.309870
0.308900
0.308900
0.310850
0.313780
0.318670
0.326490
0.335290
0.347020
0.359730
0.375370
0.392960
0.411530
0.431090
0.448680
0.466280
0.479960
0.490710
0.500490
0.508310
0.514170
0.516130
0.517110
0.516130
0.513200
0.508310
0.502440
0.495600
0.487780
0.479960
0.473120
0.463340
0.453570
0.443790
0.435970
0.428150
0.422290
0.418380
0.415440
0.413490
0.414470
0.415440
0.417400
0.419350
0.421310
0.423260
0.424240
0.425220
0.426200
0.426200
0.426200
0.426200
0.426200
0.426200
0.426200
0.425220
0.425220
0.426200
0.426200
0.426200
0.425220
0.424240
0.422290
0.420330
0.418380
0.416420
0.415440
0.413490
0.412510
0.411530
0.424240
0.441840
0.451610
0.457480
0.460410
0.461390
0.461390
0.460410
0.459430
0.458460
0.457480
0.455520
0.455520
0.455520
0.457480
0.462370
0.467250
0.475070
0.484850
0.496580
0.509290
0.521020
0.531770
0.543500
0.556210
0.567940
0.578690
0.587490
0.595310
0.602150
0.607040
0.609970
0.610950
0.609970
0.607040
0.603130
0.598240
0.592380
0.586510
0.578690
0.570870
0.563050
0.554250
0.544480
0.535680
0.527860
0.521020
0.515150
0.511240
0.507330
0.505380
0.503420
0.501470
0.500490
0.500490
0.499510
0.499510
0.499510
0.499510
0.499510
0.499510
0.499510
0.498530
0.497560
0.494620
0.491690
0.488760
0.485830
0.482890
0.480940
0.478980
0.477030
0.476050
0.474100
0.472140
0.470190
0.469210
0.466280
0.464320
0.461390
0.457480
0.455520
0.452590
0.450640
0.449660
0.448680
0.446730
0.444770
0.443790
0.441840
0.439880
0.437930
0.436950
0.435000
0.433040
0.431090
0.430110
0.431090
0.433040
0.436950
0.444770
0.455520
0.468230
0.482890
0.499510
0.516130
0.531770
0.546430
0.560120
0.570870
0.578690
0.584560
0.589440
0.593350
0.594330
0.595310
0.595310
0.593350
0.589440
0.585530
0.579670
0.574780
0.567940
0.560120
0.550340
0.540570
0.530790
0.521990
0.514170
0.507330
0.500490
0.494620
0.489740
0.486800
0.484850
0.483870
0.482890
0.480940
0.480940
0.480940
0.480940
0.481920
0.483870
0.485830
0.487780
0.487780
0.488760
0.488760
0.488760
0.486800
0.484850
0.480940
0.478010
0.473120
0.469210
0.464320
0.461390
0.458460
0.457480
0.456500
0.456500
0.457480
0.458460
0.460410
0.461390
0.463340
0.463340
0.462370
0.460410
0.457480
0.453570
0.449660
0.447700
0.444770
0.442820
0.440860
0.438910
0.437930
0.437930
0.439880
0.442820
0.446730
0.453570
0.461390
0.470190
0.479960
0.492670
0.506350
0.519060
0.532750
0.546430
0.559140
0.571850
0.582600
0.592380
0.599220
0.604110
0.606060
0.607040
0.605080
0.601170
0.596290
0.590420
0.583580
0.576740
0.567940
0.559140
0.550340
0.542520
0.534700
0.526880
0.520040
0.513200
0.508310
0.504400
0.500490
0.497560
0.494620
0.493650
0.493650
0.492670
0.492670
0.492670
0.492670
0.492670
0.492670
0.492670
0.492670
0.492670
0.492670
0.492670
0.490710
0.488760
0.486800
0.483870
0.481920
0.479960
0.477030
0.475070
0.474100
0.472140
0.471160
0.470190
0.469210
0.468230
0.466280
0.465300
0.464320
0.463340
0.461390
0.459430
0.457480
0.456500
0.454550
0.452590
0.449660
0.434020
0.413490
0.402740
0.396870
0.392960
0.389050
0.386120
0.383190
0.382210
0.383190
0.385140
0.391980
0.401760
0.416420
0.434020
0.450640
0.468230
0.488760
0.509290
0.528840
0.547410
0.564030
0.578690
0.590420
0.599220
0.605080
0.607040
0.606060
0.603130
0.599220
0.594330
0.588470
0.581620
0.571850
0.561090
0.550340
0.537630
0.524930
0.514170
0.504400
0.495600
0.486800
0.478010
0.469210
0.460410
0.454550
0.448680
0.443790
0.441840
0.440860
0.440860
0.442820
0.443790
0.444770
0.444770
0.444770
0.444770
0.443790
0.441840
0.439880
0.437930
0.436950
0.435970
0.434020
0.433040
0.432060
0.431090
0.429130
0.427170
0.424240
0.422290
0.419350
0.417400
0.414470
0.411530
0.407620
0.403710
0.399800
0.397850
0.394920
0.391980
0.388070
0.384160
0.379280
0.374390
0.370480
0.366570
0.363640
0.361680
0.359730
0.359730
0.358750
0.357770
0.358750
0.359730
0.363640
0.369500
0.380250
0.393940
0.409580
0.425220
0.440860
0.454550
0.466280
0.479960
0.493650
0.505380
0.514170
0.521990
0.526880
0.528840
0.528840
0.526880
0.522970
0.518080
0.513200
0.507330
0.499510
0.489740
0.478010
0.465300
0.452590
0.441840
0.433040
0.425220
0.419350
0.414470
0.411530
0.409580
0.407620
0.404690
0.402740
0.401760
0.401760
0.402740
0.402740
0.403710
0.403710
0.404690
0.405670
0.405670
0.405670
0.403710
0.401760
0.399800
0.397850
0.394920
0.392960
0.391010
0.388070
0.386120
0.383190
0.381230
0.380250
0.377320
0.373410
0.370480
0.366570
0.364610
0.362660
0.361680
0.360700
0.360700
0.360700
0.360700
0.360700
0.360700
0.360700
0.360700
0.359730
0.357770
0.356790
0.355820
0.355820
0.355820
0.355820
0.356790
0.358750
0.362660
0.368520
0.378300
0.391010
0.407620
0.427170
0.449660
0.472140
0.493650
0.514170
0.530790
0.544480
0.554250
0.565000
0.573800
0.580650
0.585530
0.588470
0.589440
0.588470
0.585530
0.579670
0.570870
0.560120
0.549360
0.536660
0.524930
0.514170
0.504400
0.493650
0.484850
0.477030
0.471160
0.465300
0.460410
0.457480
0.454550
0.453570
0.452590
0.452590
0.452590
0.452590
0.453570
0.454550
0.454550
0.455520
0.457480
0.458460
0.459430
0.459430
0.459430
0.459430
0.459430
0.459430
0.456500
0.453570
0.449660
0.444770
0.440860
0.436950
0.435970
0.435970
0.435970
0.435970
0.435970
0.435970
0.435970
0.435970
0.435970
0.435000
0.433040
0.431090
0.429130
0.427170
0.425220
0.424240
0.424240
0.426200
0.432060
0.440860
0.446730
0.450640
0.456500
0.465300
0.476050
0.489740
0.503420
0.517110
0.532750
0.549360
0.565980
0.582600
0.597260
0.609970
0.619750
0.628540
0.635390
0.640270
0.643210
0.644180
0.644180
0.643210
0.639300
0.633430
0.623660
0.612900
0.601170
0.589440
0.577710
0.565980
0.554250
0.543500
0.534700
0.526880
0.521020
0.516130
0.513200
0.512220
0.511240
0.511240
0.510260
0.511240
0.512220
0.513200
0.514170
0.516130
0.517110
0.517110
0.517110
0.517110
0.517110
0.517110
0.517110
0.517110
0.515150
0.511240
0.508310
0.504400
0.500490
0.495600
0.490710
0.486800
0.484850
0.482890
0.479960
0.478980
0.477030
0.475070
0.473120
0.471160
0.468230
0.464320
0.459430
0.455520
0.452590
0.450640
0.447700
0.444770
0.443790
0.444770
0.445750
0.447700
0.449660
0.452590
0.457480
0.464320
0.475070
0.489740
0.507330
0.527860
0.548390
0.568910
0.589440
0.604110
0.616810
0.629520
0.641250
0.652000
0.660800
0.667640
0.670580
0.672530
0.671550
0.668620
0.664710
0.658850
0.652000
0.644180
0.634410
0.622680
0.609970
0.597260
0.585530
0.573800
0.562070
0.551320
0.541540
0.534700
0.529810
0.526880
0.525900
0.524930
0.525900
0.525900
0.526880
0.526880
0.526880
0.526880
0.526880
0.526880
0.526880
0.526880
0.526880
0.526880
0.526880
0.526880
0.523950
0.521020
0.517110
0.512220
0.507330
0.503420
0.498530
0.494620
0.492670
0.489740
0.487780
0.484850
0.480940
0.476050
0.472140
0.469210
0.466280
0.464320
0.463340
0.462370
0.460410
0.458460
0.456500
0.454550
0.451610
0.449660
0.447700
0.447700
0.448680
0.450640
0.455520
0.464320
0.473120
0.485830
0.502440
0.521020
0.541540
0.562070
0.582600
0.602150
0.621700
0.638320
0.653960
0.665690
0.675460
0.680350
0.682310
0.682310
0.680350
0.676440
0.671550
0.666670
0.659820
0.652000
0.642230
0.629520
0.616810
0.606060
0.595310
0.584560
0.573800
0.563050
0.553270
0.544480
0.536660
0.531770
0.527860
0.525900
0.525900
0.525900
0.526880
0.526880
0.526880
0.526880
0.527860
0.527860
0.527860
0.526880
0.525900
0.522970
0.519060
0.514170
0.510260
0.508310
0.507330
0.506350
0.505380
0.503420
0.499510
0.495600
0.490710
0.486800
0.481920
0.478010
0.475070
0.472140
0.468230
0.464320
0.460410
0.456500
0.452590
0.451610
0.451610
0.451610
0.451610
0.450640
0.448680
0.447700
0.446730
0.444770
0.443790
0.443790
0.445750
0.448680
0.454550
0.463340
0.476050
0.490710
0.491690
0.487780
0.492670
0.504400
0.521020
0.538610
0.557180
0.575760
0.591400
0.604110
0.612900
0.617790
0.619750
0.617790
0.613880
0.608020
0.601170
0.591400
0.578690
0.565000
0.552300
0.539590
0.526880
0.514170
0.502440
0.489740
0.478010
0.469210
0.462370
0.456500
0.450640
0.445750
0.440860
0.437930
0.435970
0.434020
0.432060
0.431090
0.429130
0.427170
0.426200
0.424240
0.421310
0.418380
0.414470
0.410560
0.405670
0.400780
0.395890
0.391980
0.389050
0.387100
0.385140
0.383190
0.381230
0.378300
0.376340
0.373410
0.370480
0.367550
0.363640
0.359730
0.354840
0.349950
0.345060
0.342130
0.338220
0.335290
0.332360
0.330400
0.327470
0.325510
0.322580
0.320630
0.317690
0.315740
0.313780
0.314760
0.317690
0.323560
0.333330
0.347020
0.363640
0.382210
0.404690
0.428150
0.451610
0.475070
0.495600
0.512220
0.524930
0.534700
0.542520
0.547410
0.549360
0.548390
0.545450
0.540570
0.534700
0.527860
0.518080
0.509290
0.498530
0.485830
0.471160
0.457480
0.443790
0.432060
0.420330
0.409580
0.400780
0.393940
0.390030
0.389050
0.388070
0.387100
0.387100
0.387100
0.387100
0.387100
0.386120
0.386120
0.386120
0.385140
0.384160
0.382210
0.381230
0.380250
0.378300
0.378300
0.377320
0.375370
0.373410
0.373410
0.372430
0.371460
0.370480
0.369500
0.367550
0.366570
0.365590
0.363640
0.360700
0.358750
0.356790
0.353860
0.351910
0.349950
0.348000
0.347020
0.346040
0.346040
0.347020
0.347020
0.348000
0.349950
0.351910
0.353860
0.357770
0.363640
0.372430
0.384160
0.398830
0.416420
0.434020
0.450640
0.471160
0.492670
0.514170
0.533720
0.550340
0.565000
0.575760
0.584560
0.590420
0.592380
0.591400
0.588470
0.584560
0.579670
0.571850
0.562070
0.551320
0.540570
0.528840
0.516130
0.504400
0.492670
0.479960
0.470190
0.461390
0.454550
0.448680
0.442820
0.435000
0.427170
0.417400
0.408600
0.398830
0.390030
0.382210
0.377320
0.375370
0.374390
0.375370
0.379280
0.384160
0.388070
0.391980
0.394920
0.397850
0.401760
0.406650
0.411530
0.415440
0.418380
0.419350
0.420330
0.420330
0.420330
0.420330
0.418380
0.416420
0.414470
0.412510
0.409580
0.405670
0.402740
0.397850
0.393940
0.390030
0.386120
0.384160
0.382210
0.381230
0.382210
0.384160
0.386120
0.389050
0.393940
0.400780
0.411530
0.425220
0.442820
0.463340
0.483870
0.505380
0.524930
0.543500
0.559140
0.572830
0.581620
0.587490
0.592380
0.597260
0.600200
0.603130
0.606060
0.607040
0.605080
0.600200
0.594330
0.586510
0.577710
0.568910
0.559140
0.549360
0.539590
0.529810
0.521020
0.513200
0.506350
0.500490
0.496580
0.493650
0.491690
0.489740
0.487780
0.486800
0.484850
0.483870
0.482890
0.481920
0.480940
0.479960
0.478010
0.476050
0.475070
0.475070
0.474100
0.472140
0.470190
0.467250
0.464320
0.461390
0.458460
0.455520
0.452590
0.449660
0.446730
0.443790
0.440860
0.438910
0.436950
0.435000
0.433040
0.431090
0.429130
0.427170
0.426200
0.424240
0.422290
0.420330
0.419350
0.418380
0.417400
0.416420
0.416420
0.417400
0.420330
0.425220
0.432060
0.440860
0.451610
0.464320
0.478980
0.492670
0.505380
0.521020
0.535680
0.549360
0.562070
0.572830
0.581620
0.588470
0.593350
0.594330
0.593350
0.590420
0.585530
0.578690
0.571850
0.565000
0.558160
0.550340
0.541540
0.531770
0.521990
0.512220
0.503420
0.495600
0.489740
0.483870
0.478010
0.473120
0.469210
0.465300
0.462370
0.460410
0.459430
0.459430
0.459430
0.459430
0.460410
0.462370
0.463340
0.464320
0.464320
0.463340
0.460410
0.455520
0.450640
0.445750
0.441840
0.437930
0.435970
0.435970
0.435000
0.434020
0.433040
0.432060
0.430110
0.427170
0.424240
0.421310
0.419350
0.417400
0.415440
0.414470
0.413490
0.412510
0.410560
0.406650
0.401760
0.396870
0.391010
0.385140
0.380250
0.377320
0.376340
0.378300
0.381230
0.387100
0.396870
0.410560
0.427170
0.444770
0.462370
0.478980
0.493650
0.506350
0.517110
0.526880
0.533720
0.538610
0.544480
0.549360
0.553270
0.556210
0.557180
0.557180
0.556210
0.553270
0.547410
0.539590
0.530790
0.521990
0.513200
0.504400
0.496580
0.488760
0.480940
0.473120
0.466280
0.460410
0.455520
0.451610
0.447700
0.443790
0.440860
0.438910
0.436950
0.435970
0.435970
0.435970
0.435000
0.434020
0.433040
0.432060
0.432060
0.432060
0.432060
0.433040
0.433040
0.432060
0.430110
0.428150
0.426200
0.424240
0.422290
0.420330
0.418380
0.416420
0.415440
0.414470
0.413490
0.412510
0.410560
0.408600
0.406650
0.404690
0.401760
0.398830
0.395890
0.393940
0.391980
0.390030
0.389050
0.387100
0.385140
0.383190
0.382210
0.383190
0.385140
0.389050
0.395890
0.405670
0.417400
0.428150
0.439880
0.454550
0.471160
0.487780
0.503420
0.519060
0.532750
0.544480
0.554250
0.561090
0.565980
0.567940
0.567940
0.565980
0.563050
0.558160
0.551320
0.542520
0.533720
0.523950
0.514170
0.505380
0.495600
0.487780
0.481920
0.476050
0.468230
0.461390
0.454550
0.448680
0.442820
0.438910
0.435970
0.434020
0.432060
0.430110
0.429130
0.428150
0.428150
0.428150
0.429130
0.428150
0.427170
0.425220
0.424240
0.422290
0.420330
0.417400
0.413490
0.411530
0.409580
0.406650
0.402740
0.399800
0.395890
0.393940
0.391980
0.391010
0.390030
0.389050
0.387100
0.385140
0.383190
0.380250
0.375370
0.370480
0.365590
0.361680
0.358750
0.355820
0.354840
0.354840
0.354840
0.353860
0.354840
0.354840
0.355820
0.357770
0.360700
0.364610
0.371460
0.380250
0.391980
0.405670
0.420330
0.435000
0.448680
0.462370
0.476050
0.489740
0.501470
0.511240
0.519060
0.523950
0.527860
0.528840
0.527860
0.525900
0.521990
0.517110
0.511240
0.503420
0.494620
0.483870
0.474100
0.463340
0.452590
0.442820
0.434020
0.426200
0.420330
0.414470
0.410560
0.406650
0.403710
0.401760
0.399800
0.398830
0.399800
0.400780
0.402740
0.403710
0.403710
0.404690
0.405670
0.406650
0.406650
0.407620
0.407620
0.408600
0.408600
0.408600
0.406650
0.405670
0.403710
0.400780
0.397850
0.396870
0.394920
0.392960
0.391980
0.391980
0.391980
0.393940
0.394920
0.396870
0.398830
0.399800
0.398830
0.398830
0.397850
0.395890
0.393940
0.391980
0.390030
0.389050
0.389050
0.390030
0.391980
0.395890
0.401760
0.408600
0.417400
0.428150
0.440860
0.454550
0.469210
0.482890
0.496580
0.509290
0.521020
0.531770
0.541540
0.549360
0.555230
0.558160
0.561090
0.562070
0.562070
0.560120
0.558160
0.554250
0.548390
0.540570
0.532750
0.523950
0.515150
0.507330
0.500490
0.492670
0.484850
0.478010
0.471160
0.465300
0.460410
0.457480
0.455520
0.455520
0.456500
0.457480
0.458460
0.459430
0.459430
0.459430
0.459430
0.459430
0.457480
0.455520
0.453570
0.451610
0.450640
0.448680
0.447700
0.446730
0.445750
0.443790
0.441840
0.440860
0.439880
0.439880
0.439880
0.439880
0.439880
0.438910
0.438910
0.437930
0.436950
0.435000
0.433040
0.431090
0.429130
0.427170
0.424240
0.422290
0.420330
0.419350
0.419350
0.419350
0.421310
0.423260
0.426200
0.431090
0.437930
0.445750
0.456500
0.469210
0.483870
0.499510
0.512220
0.522970
0.535680
0.547410
0.559140
0.569890
0.578690
0.586510
0.593350
0.598240
0.602150
0.603130
0.602150
0.600200
0.596290
0.590420
0.582600
0.572830
0.561090
0.549360
0.537630
0.525900
0.517110
0.508310
0.501470
0.496580
0.492670
0.489740
0.487780
0.485830
0.483870
0.486800
0.491690
0.493650
0.493650
0.493650
0.493650
0.493650
0.493650
0.493650
0.493650
0.493650
0.493650
0.492670
0.491690
0.489740
0.486800
0.483870
0.480940
0.477030
0.475070
0.473120
0.471160
0.469210
0.467250
0.466280
0.464320
0.464320
0.464320
0.465300
0.465300
0.465300
0.464320
0.463340
0.462370
0.460410
0.459430
0.457480
0.456500
0.454550
0.453570
0.451610
0.449660
0.448680
0.448680
0.449660
0.451610
0.456500
0.463340
0.472140
0.482890
0.496580
0.510260
0.524930
0.539590
0.554250
0.566960
0.577710
0.585530
0.592380
0.597260
0.602150
0.605080
0.608020
0.609970
0.609970
0.608990
0.606060
0.602150
0.596290
0.589440
0.581620
0.573800
0.565980
0.558160
0.549360
0.541540
0.533720
0.526880
0.521990
0.519060
0.517110
0.516130
0.516130
0.516130
0.515150
0.513200
0.513200
0.513200
0.512220
0.512220
0.512220
0.512220
0.512220
0.512220
0.512220
0.511240
0.510260
0.509290
0.508310
0.506350
0.505380
0.503420
0.501470
0.498530
0.496580
0.493650
0.491690
0.488760
0.486800
0.483870
0.480940
0.477030
0.475070
0.473120
0.471160
0.469210
0.467250
0.466280
0.464320
0.463340
0.462370
0.461390
0.460410
0.459430
0.457480
0.456500
0.456500
0.457480
0.458460
0.462370
0.467250
0.475070
0.482890
0.490710
0.502440
0.515150
0.527860
0.542520
0.556210
0.568910
0.581620
0.592380
0.601170
0.608990
0.612900
0.615840
0.616810
0.617790
0.618770
0.617790
0.615840
0.612900
0.607040
0.600200
0.592380
0.583580
0.574780
0.566960
0.560120
0.553270
0.547410
0.541540
0.535680
0.530790
0.526880
0.523950
0.521990
0.521020
0.521020
0.521020
0.521020
0.521020
0.521020
0.521020
0.521020
0.521020
0.521020
0.521020
0.521020
0.520040
0.519060
0.517110
0.514170
0.512220
0.509290
0.506350
0.502440
0.500490
0.498530
0.497560
0.496580
0.495600
0.493650
0.491690
0.489740
0.487780
0.484850
0.481920
0.478980
0.476050
0.472140
0.469210
0.466280
0.463340
0.461390
0.459430
0.458460
0.458460
0.459430
0.460410
0.461390
0.463340
0.464320
0.466280
0.468230
0.470190
0.474100
0.478980
0.486800
0.493650
0.502440
0.514170
0.527860
0.543500
0.558160
0.571850
0.584560
0.597260
0.607040
0.614860
0.619750
0.621700
0.622680
0.621700
0.618770
0.615840
0.611930
0.607040
0.600200
0.592380
0.583580
0.573800
0.565000
0.556210
0.549360
0.542520
0.535680
0.528840
0.523950
0.520040
0.517110
0.515150
0.515150
0.514170
0.514170
0.514170
0.503420
0.487780
0.479960
0.476050
0.474100
0.473120
0.473120
0.473120
0.471160
0.469210
0.466280
0.462370
0.459430
0.456500
0.453570
0.450640
0.446730
0.442820
0.438910
0.435000
0.431090
0.427170
0.424240
0.421310
0.419350
0.417400
0.416420
0.414470
0.413490
0.411530
0.408600
0.405670
0.402740
0.397850
0.392960
0.388070
0.383190
0.380250
0.377320
0.375370
0.374390
0.372430
0.372430
0.373410
0.375370
0.378300
0.384160
0.391980
0.402740
0.416420
0.429130
0.442820
0.460410
0.478010
0.496580
0.514170
0.528840
0.542520
0.553270
0.562070
0.567940
0.571850
0.573800
0.572830
0.570870
0.565980
0.560120
0.553270
0.545450
0.536660
0.525900
0.513200
0.500490
0.486800
0.475070
0.464320
0.455520
0.445750
0.437930
0.430110
0.424240
0.421310
0.418380
0.417400
0.418380
0.418380
0.418380
0.417400
0.417400
0.416420
0.414470
0.412510
0.411530
0.409580
0.407620
0.405670
0.403710
0.401760
0.399800
0.397850
0.395890
0.394920
0.392960
0.391980
0.389050
0.385140
0.381230
0.375370
0.369500
0.364610
0.359730
0.355820
0.351910
0.348970
0.346040
0.343110
0.339200
0.336270
0.332360
0.328450
0.324540
0.320630
0.317690
0.315740
0.313780
0.313780
0.313780
0.315740
0.318670
0.323560
0.330400
0.340180
0.353860
0.369500
0.387100
0.407620
0.429130
0.450640
0.467250
0.481920
0.497560
0.511240
0.523950
0.532750
0.539590
0.544480
0.547410
0.548390
0.547410
0.544480
0.540570
0.534700
0.524930
0.514170
0.501470
0.488760
0.476050
0.463340
0.451610
0.439880
0.430110
0.423260
0.420330
0.417400
0.415440
0.414470
0.413490
0.413490
0.414470
0.415440
0.417400
0.418380
0.419350
0.419350
0.419350
0.419350
0.419350
0.418380
0.416420
0.415440
0.414470
0.415440
0.416420
0.417400
0.418380
0.418380
0.418380
0.419350
0.419350
0.418380
0.417400
0.416420
0.414470
0.413490
0.411530
0.409580
0.407620
0.405670
0.403710
0.401760
0.399800
0.398830
0.396870
0.396870
0.396870
0.397850
0.400780
0.403710
0.409580
0.417400
0.428150
0.442820
0.457480
0.473120
0.492670
0.515150
0.537630
0.561090
0.582600
0.603130
0.621700
0.637340
0.649070
0.658850
0.665690
0.668620
0.669600
0.668620
0.666670
0.662760
0.656890
0.649070
0.639300
0.627570
0.615840
0.602150
0.588470
0.574780
0.563050
0.551320
0.540570
0.530790
0.522970
0.515150
0.509290
0.503420
0.496580
0.490710
0.485830
0.482890
0.481920
0.480940
0.480940
0.479960
0.479960
0.479960
0.482890
0.487780
0.488760
0.489740
0.488760
0.488760
0.487780
0.486800
0.485830
0.484850
0.482890
0.480940
0.479960
0.478010
0.476050
0.474100
0.472140
0.470190
0.468230
0.466280
0.464320
0.462370
0.460410
0.458460
0.456500
0.455520
0.453570
0.452590
0.451610
0.451610
0.451610
0.452590
0.453570
0.455520
0.458460
0.464320
0.471160
0.480940
0.492670
0.505380
0.519060
0.533720
0.547410
0.561090
0.571850
0.581620
0.592380
0.602150
0.609970
0.616810
0.621700
0.624630
0.625610
0.624630
0.622680
0.618770
0.613880
0.607040
0.598240
0.588470
0.578690
0.567940
0.558160
0.549360
0.539590
0.531770
0.524930
0.519060
0.514170
0.510260
0.507330
0.505380
0.503420
0.502440
0.501470
0.500490
0.499510
0.498530
0.497560
0.495600
0.494620
0.493650
0.492670
0.492670
0.492670
0.491690
0.489740
0.487780
0.485830
0.483870
0.480940
0.478980
0.477030
0.474100
0.473120
0.471160
0.469210
0.467250
0.464320
0.462370
0.459430
0.457480
0.455520
0.453570
0.451610
0.449660
0.447700
0.446730
0.445750
0.443790
0.443790
0.443790
0.444770
0.446730
0.449660
0.453570
0.460410
0.469210
0.478980
0.489740
0.502440
0.517110
0.532750
0.547410
0.561090
0.573800
0.585530
0.595310
0.604110
0.609970
0.614860
0.616810
0.616810
0.614860
0.610950
0.606060
0.601170
0.594330
0.586510
0.578690
0.569890
0.560120
0.551320
0.542520
0.535680
0.528840
0.522970
0.517110
0.512220
0.507330
0.503420
0.499510
0.496580
0.493650
0.492670
0.491690
0.491690
0.490710
0.490710
0.489740
0.488760
0.488760
0.487780
0.486800
0.484850
0.482890
0.480940
0.478980
0.477030
0.475070
0.472140
0.469210
0.466280
0.461390
0.457480
0.454550
0.451610
0.448680
0.446730
0.443790
0.441840
0.439880
0.436950
0.434020
0.431090
0.427170
0.424240
0.421310
0.419350
0.418380
0.417400
0.417400
0.416420
0.417400
0.418380
0.419350
0.422290
0.426200
0.433040
0.440860
0.450640
0.462370
0.476050
0.489740
0.503420
0.516130
0.526880
0.536660
0.547410
0.556210
0.564030
0.569890
0.574780
0.577710
0.579670
0.579670
0.577710
0.573800
0.568910
0.564030
0.557180
0.548390
0.540570
0.531770
0.523950
0.515150
0.507330
0.500490
0.495600
0.489740
0.484850
0.480940
0.477030
0.473120
0.469210
0.467250
0.466280
0.465300
0.465300
0.465300
0.464320
0.462370
0.460410
0.458460
0.457480
0.456500
0.454550
0.453570
0.452590
0.450640
0.448680
0.445750
0.442820
0.438910
0.435970
0.432060
0.423260
0.410560
0.402740
0.397850
0.394920
0.391980
0.389050
0.387100
0.384160
0.381230
0.377320
0.373410
0.370480
0.368520
0.365590
0.363640
0.360700
0.358750
0.356790
0.354840
0.354840
0.354840
0.356790
0.359730
0.364610
0.371460
0.378300
0.389050
0.400780
0.413490
0.427170
0.440860
0.455520
0.468230
0.479960
0.489740
0.498530
0.505380
0.509290
0.512220
0.514170
0.514170
0.513200
0.510260
0.506350
0.500490
0.492670
0.482890
0.473120
0.463340
0.453570
0.445750
0.437930
0.431090
0.424240
0.418380
0.413490
0.408600
0.403710
0.398830
0.394920
0.392960
0.391010
0.391010
0.391010
0.391010
0.391980
0.392960
0.392960
0.392960
0.392960
0.392960
0.392960
0.392960
0.392960
0.392960
0.392960
0.391980
0.390030
0.387100
0.385140
0.382210
0.379280
0.377320
0.376340
0.375370
0.375370
0.374390
0.374390
0.374390
0.372430
0.371460
0.370480
0.368520
0.365590
0.363640
0.360700
0.358750
0.356790
0.354840
0.354840
0.353860
0.353860
0.353860
0.354840
0.354840
0.356790
0.359730
0.363640
0.370480
0.379280
0.390030
0.400780
0.411530
0.424240
0.437930
0.451610
0.463340
0.475070
0.485830
0.494620
0.502440
0.508310
0.511240
0.513200
0.513200
0.513200
0.511240
0.507330
0.503420
0.497560
0.490710
0.483870
0.476050
0.468230
0.460410
0.453570
0.446730
0.440860
0.435970
0.432060
0.429130
0.427170
0.426200
0.426200
0.426200
0.427170
0.428150
0.429130
0.430110
0.431090
0.431090
0.431090
0.431090
0.430110
0.430110
0.429130
0.429130
0.428150
0.427170
0.427170
0.426200
0.425220
0.425220
0.424240
0.423260
0.421310
0.420330
0.419350
0.416420
0.413490
0.410560
0.406650
0.403710
0.401760
0.399800
0.398830
0.397850
0.395890
0.394920
0.393940
0.392960
0.392960
0.392960
0.392960
0.392960
0.393940
0.394920
0.396870
0.398830
0.402740
0.407620
0.415440
0.424240
0.434020
0.445750
0.458460
0.471160
0.482890
0.491690
0.499510
0.506350
0.513200
0.519060
0.522970
0.525900
0.527860
0.526880
0.524930
0.521990
0.517110
0.511240
0.505380
0.500490
0.494620
0.488760
0.482890
0.477030
0.471160
0.464320
0.458460
0.453570
0.448680
0.443790
0.440860
0.437930
0.436950
0.435970
0.435000
0.435000
0.435000
0.434020
0.433040
0.433040
0.432060
0.432060
0.431090
0.431090
0.431090
0.430110
0.429130
0.428150
0.426200
0.425220
0.424240
0.423260
0.421310
0.420330
0.419350
0.418380
0.417400
0.416420
0.414470
0.413490
0.412510
0.410560
0.421310
0.437930
0.444770
0.446730
0.446730
0.445750
0.444770
0.443790
0.442820
0.440860
0.438910
0.438910
0.437930
0.438910
0.438910
0.441840
0.446730
0.454550
0.463340
0.473120
0.484850
0.498530
0.513200
0.527860
0.543500
0.557180
0.570870
0.583580
0.594330
0.603130
0.609970
0.613880
0.616810
0.617790
0.617790
0.615840
0.612900
0.607040
0.600200
0.592380
0.583580
0.574780
0.566960
0.559140
0.552300
0.545450
0.537630
0.531770
0.526880
0.522970
0.519060
0.517110
0.515150
0.515150
0.514170
0.514170
0.514170
0.514170
0.514170
0.514170
0.514170
0.514170
0.513200
0.512220
0.511240
0.509290
0.508310
0.506350
0.505380
0.504400
0.502440
0.499510
0.497560
0.494620
0.491690
0.488760
0.486800
0.484850
0.482890
0.481920
0.479960
0.478980
0.478010
0.476050
0.474100
0.471160
0.469210
0.468230
0.466280
0.464320
0.463340
0.462370
0.461390
0.460410
0.459430
0.458460
0.457480
0.458460
0.459430
0.464320
0.471160
0.480940
0.491690
0.504400
0.518080
0.530790
0.543500
0.557180
0.570870
0.583580
0.595310
0.605080
0.612900
0.619750
0.624630
0.627570
0.628540
0.628540
0.626590
0.624630
0.621700
0.616810
0.609970
0.602150
0.593350
0.585530
0.577710
0.569890
0.561090
0.553270
0.546430
0.540570
0.536660
0.533720
0.531770
0.530790
0.529810
0.529810
0.529810
0.529810
0.530790
0.530790
0.531770
0.531770
0.532750
0.532750
0.531770
0.529810
0.526880
0.524930
0.521990
0.519060
0.517110
0.516130
0.514170
0.513200
0.511240
0.510260
0.508310
0.506350
0.503420
0.501470
0.499510
0.496580
0.493650
0.490710
0.488760
0.486800
0.484850
0.483870
0.482890
0.480940
0.479960
0.478010
0.477030
0.475070
0.474100
0.474100
0.475070
0.476050
0.477030
0.478980
0.481920
0.485830
0.491690
0.499510
0.509290
0.520040
0.532750
0.547410
0.562070
0.576740
0.591400
0.603130
0.612900
0.621700
0.629520
0.635390
0.637340
0.638320
0.635390
0.631480
0.625610
0.618770
0.610950
0.602150
0.592380
0.582600
0.572830
0.563050
0.553270
0.545450
0.538610
0.531770
0.524930
0.519060
0.513200
0.509290
0.506350
0.503420
0.501470
0.500490
0.499510
0.499510
0.498530
0.497560
0.495600
0.493650
0.490710
0.488760
0.486800
0.485830
0.484850
0.482890
0.481920
0.479960
0.478010
0.476050
0.473120
0.470190
0.467250
0.463340
0.459430
0.455520
0.452590
0.449660
0.446730
0.442820
0.440860
0.438910
0.437930
0.436950
0.435000
0.434020
0.433040
0.432060
0.420330
0.403710
0.394920
0.390030
0.387100
0.386120
0.385140
0.385140
0.387100
0.390030
0.394920
0.400780
0.408600
0.417400
0.429130
0.441840
0.455520
0.469210
0.481920
0.492670
0.503420
0.512220
0.519060
0.523950
0.526880
0.528840
0.528840
0.526880
0.523950
0.520040
0.513200
0.505380
0.497560
0.487780
0.478980
0.469210
0.461390
0.453570
0.446730
0.438910
0.433040
0.427170
0.422290
0.417400
0.413490
0.410560
0.407620
0.404690
0.402740
0.401760
0.400780
0.400780
0.399800
0.399800
0.399800
0.399800
0.399800
0.399800
0.398830
0.396870
0.394920
0.392960
0.391980
0.391010
0.391010
0.391010
0.390030
0.389050
0.388070
0.386120
0.384160
0.383190
0.381230
0.378300
0.376340
0.374390
0.372430
0.369500
0.366570
0.363640
0.359730
0.357770
0.355820
0.354840
0.354840
0.353860
0.354840
0.354840
0.354840
0.355820
0.357770
0.361680
0.366570
0.374390
0.384160
0.395890
0.408600
0.422290
0.436950
0.450640
0.462370
0.475070
0.487780
0.499510
0.510260
0.519060
0.524930
0.528840
0.530790
0.529810
0.526880
0.523950
0.519060
0.513200
0.506350
0.499510
0.490710
0.483870
0.477030
0.470190
0.463340
0.457480
0.452590
0.449660
0.447700
0.446730
0.446730
0.447700
0.448680
0.448680
0.448680
0.448680
0.449660
0.449660
0.450640
0.450640
0.450640
0.450640
0.450640
0.450640
0.451610
0.452590
0.453570
0.453570
0.453570
0.452590
0.451610
0.450640
0.449660
0.449660
0.449660
0.449660
0.448680
0.448680
0.447700
0.446730
0.445750
0.445750
0.444770
0.443790
0.441840
0.440860
0.439880
0.438910
0.437930
0.438910
0.439880
0.443790
0.449660
0.456500
0.466280
0.478010
0.492670
0.507330
0.521020
0.534700
0.548390
0.564030
0.578690
0.593350
0.606060
0.618770
0.629520
0.637340
0.643210
0.645160
0.645160
0.644180
0.642230
0.639300
0.634410
0.628540
0.620720
0.611930
0.601170
0.591400
0.582600
0.572830
0.563050
0.555230
0.548390
0.541540
0.536660
0.530790
0.526880
0.523950
0.521990
0.520040
0.519060
0.518080
0.517110
0.516130
0.515150
0.515150
0.514170
0.513200
0.511240
0.510260
0.508310
0.507330
0.505380
0.502440
0.499510
0.498530
0.497560
0.496580
0.496580
0.496580
0.496580
0.495600
0.494620
0.492670
0.489740
0.486800
0.481920
0.477030
0.473120
0.470190
0.466280
0.463340
0.460410
0.456500
0.454550
0.453570
0.452590
0.454550
0.458460
0.464320
0.473120
0.482890
0.493650
0.507330
0.522970
0.539590
0.557180
0.573800
0.582600
0.584560
0.591400
0.597260
0.603130
0.607040
0.608990
0.610950
0.611930
0.611930
0.609970
0.607040
0.603130
0.597260
0.590420
0.582600
0.574780
0.565980
0.558160
0.549360
0.541540
0.534700
0.527860
0.521990
0.517110
0.513200
0.511240
0.509290
0.507330
0.506350
0.505380
0.504400
0.502440
0.501470
0.500490
0.499510
0.498530
0.497560
0.497560
0.497560
0.496580
0.495600
0.494620
0.493650
0.492670
0.491690
0.490710
0.488760
0.486800
0.485830
0.483870
0.482890
0.480940
0.478980
0.477030
0.475070
0.473120
0.471160
0.468230
0.464320
0.462370
0.460410
0.458460
0.456500
0.454550
0.452590
0.451610
0.451610
0.452590
0.454550
0.457480
0.462370
0.468230
0.477030
0.485830
0.495600
0.506350
0.519060
0.530790
0.542520
0.552300
0.560120
0.566960
0.573800
0.579670
0.583580
0.585530
0.584560
0.581620
0.577710
0.571850
0.565980
0.560120
0.554250
0.547410
0.539590
0.532750
0.524930
0.517110
0.509290
0.501470
0.494620
0.488760
0.482890
0.478980
0.476050
0.474100
0.472140
0.470190
0.469210
0.468230
0.467250
0.467250
0.466280
0.465300
0.465300
0.464320
0.463340
0.462370
0.461390
0.460410
0.459430
0.458460
0.456500
0.454550
0.452590
0.450640
0.447700
0.445750
0.443790
0.441840
0.440860
0.438910
0.436950
0.435000
0.434020
0.432060
0.430110
0.428150
0.427170
0.425220
0.424240
0.423260
0.423260
0.423260
0.422290
0.423260
0.424240
0.427170
0.430110
0.435000
0.441840
0.448680
0.458460
0.468230
0.478010
0.487780
0.498530
0.508310
0.519060
0.526880
0.533720
0.539590
0.543500
0.547410
0.549360
0.551320
0.551320
0.550340
0.548390
0.544480
0.539590
0.532750
0.524930
0.516130
0.507330
0.499510
0.491690
0.484850
0.478980
0.474100
0.470190
0.465300
0.462370
0.459430
0.457480
0.456500
0.454550
0.454550
0.453570
0.453570
0.453570
0.453570
0.453570
0.452590
0.452590
0.452590
0.452590
0.452590
0.452590
0.452590
0.451610
0.450640
0.449660
0.448680
0.447700
0.445750
0.443790
0.442820
0.440860
0.438910
0.436950
0.434020
0.432060
0.429130
0.427170
0.425220
0.424240
0.423260
0.423260
0.423260
0.422290
0.423260
0.423260
0.424240
0.426200
0.428150
0.432060
0.437930
0.444770
0.451610
0.458460
0.467250
0.477030
0.486800
0.496580
0.505380
0.514170
0.522970
0.530790
0.534700
0.537630
0.538610
0.538610
0.538610
0.536660
0.533720
0.529810
0.524930
0.518080
0.510260
0.502440
0.494620
0.486800
0.480940
0.475070
0.461390
0.442820
0.432060
0.425220
0.421310
0.418380
0.417400
0.417400
0.418380
0.419350
0.420330
0.422290
0.423260
0.424240
0.425220
0.425220
0.425220
0.425220
0.425220
0.425220
0.425220
0.424240
0.423260
0.423260
0.422290
0.421310
0.420330
0.418380
0.417400
0.415440
0.414470
0.412510
0.409580
0.406650
0.404690
0.402740
0.400780
0.399800
0.398830
0.396870
0.395890
0.395890
0.394920
0.395890
0.396870
0.399800
0.404690
0.411530
0.419350
0.428150
0.437930
0.449660
0.461390
0.474100
0.486800
0.498530
0.511240
0.521020
0.529810
0.536660
0.540570
0.542520
0.541540
0.539590
0.536660
0.531770
0.526880
0.521020
0.513200
0.504400
0.494620
0.485830
0.477030
0.470190
0.464320
0.457480
0.451610
0.446730
0.442820
0.438910
0.435970
0.434020
0.433040
0.432060
0.432060
0.431090
0.430110
0.429130
0.427170
0.426200
0.426200
0.426200
0.426200
0.426200
0.425220
0.425220
0.425220
0.424240
0.424240
0.424240
0.424240
0.423260
0.421310
0.420330
0.418380
0.417400
0.415440
0.414470
0.412510
0.411530
0.409580
0.408600
0.407620
0.406650
0.404690
0.403710
0.401760
0.400780
0.398830
0.396870
0.396870
0.396870
0.397850
0.400780
0.404690
0.410560
0.419350
0.429130
0.440860
0.453570
0.466280
0.478980
0.490710
0.501470
0.512220
0.520040
0.525900
0.529810
0.532750
0.534700
0.534700
0.532750
0.529810
0.523950
0.518080
0.510260
0.503420
0.495600
0.488760
0.481920
0.475070
0.469210
0.462370
0.456500
0.450640
0.443790
0.438910
0.434020
0.431090
0.428150
0.427170
0.426200
0.426200
0.426200
0.426200
0.426200
0.426200
0.427170
0.427170
0.427170
0.426200
0.424240
0.423260
0.422290
0.421310
0.420330
0.419350
0.418380
0.418380
0.418380
0.417400
0.416420
0.415440
0.414470
0.412510
0.411530
0.409580
0.408600
0.406650
0.403710
0.399800
0.395890
0.392960
0.389050
0.387100
0.385140
0.384160
0.384160
0.385140
0.387100
0.391010
0.396870
0.402740
0.410560
0.419350
0.428150
0.437930
0.449660
0.461390
0.472140
0.481920
0.490710
0.499510
0.507330
0.513200
0.518080
0.520040
0.520040
0.520040
0.518080
0.514170
0.510260
0.503420
0.497560
0.491690
0.483870
0.477030
0.470190
0.463340
0.456500
0.450640
0.443790
0.438910
0.434020
0.431090
0.428150
0.426200
0.426200
0.426200
0.426200
0.426200
0.426200
0.426200
0.426200
0.426200
0.426200
0.425220
0.424240
0.423260
0.423260
0.421310
0.420330
0.419350
0.419350
0.419350
0.419350
0.422290
0.427170
0.430110
0.431090
0.432060
0.433040
0.433040
0.432060
0.430110
0.428150
0.426200
0.423260
0.419350
0.415440
0.412510
0.409580
0.407620
0.405670
0.403710
0.401760
0.400780
0.401760
0.403710
0.407620
0.414470
0.424240
0.436950
0.450640
0.467250
0.482890
0.497560
0.513200
0.528840
0.545450
0.561090
0.573800
0.583580
0.590420
0.594330
0.595310
0.593350
0.589440
0.584560
0.578690
0.569890
0.560120
0.548390
0.535680
0.521990
0.509290
0.496580
0.485830
0.476050
0.466280
0.459430
0.453570
0.448680
0.444770
0.442820
0.441840
0.441840
0.440860
0.440860
0.440860
0.441840
0.441840
0.441840
0.441840
0.441840
0.441840
0.441840
0.441840
0.440860
0.439880
0.437930
0.435000
0.433040
0.431090
0.428150
0.427170
0.425220
0.423260
0.421310
0.419350
0.416420
0.411530
0.405670
0.398830
0.393940
0.388070
0.383190
0.378300
0.375370
0.372430
0.369500
0.367550
0.366570
0.365590
0.365590
0.366570
0.367550
0.370480
0.377320
0.387100
0.397850
0.410560
0.428150
0.446730
0.467250
0.486800
0.508310
0.527860
0.539590
0.551320
0.560120
0.566960
0.572830
0.576740
0.577710
0.576740
0.573800
0.567940
0.560120
0.550340
0.538610
0.525900
0.513200
0.501470
0.490710
0.480940
0.473120
0.464320
0.455520
0.446730
0.438910
0.433040
0.428150
0.425220
0.422290
0.419350
0.417400
0.417400
0.418380
0.419350
0.420330
0.421310
0.422290
0.423260
0.423260
0.422290
0.420330
0.418380
0.416420
0.413490
0.410560
0.408600
0.406650
0.402740
0.400780
0.397850
0.394920
0.391010
0.387100
0.383190
0.377320
0.371460
0.367550
0.365590
0.362660
0.360700
0.357770
0.355820
0.353860
0.350930
0.349950
0.348970
0.348970
0.349950
0.352880
0.357770
0.363640
0.370480
0.380250
0.392960
0.407620
0.425220
0.444770
0.467250
0.489740
0.511240
0.532750
0.551320
0.565000
0.578690
0.588470
0.595310
0.599220
0.600200
0.598240
0.595310
0.591400
0.587490
0.580650
0.572830
0.563050
0.553270
0.540570
0.527860
0.516130
0.504400
0.493650
0.482890
0.474100
0.467250
0.462370
0.458460
0.457480
0.457480
0.458460
0.460410
0.463340
0.465300
0.466280
0.467250
0.467250
0.467250
0.467250
0.467250
0.467250
0.467250
0.467250
0.467250
0.467250
0.467250
0.467250
0.467250
0.467250
0.465300
0.461390
0.457480
0.454550
0.450640
0.447700
0.443790
0.440860
0.437930
0.436950
0.436950
0.436950
0.435970
0.435000
0.433040
0.431090
0.431090
0.431090
0.432060
0.440860
0.453570
0.465300
0.477030
0.491690
0.509290
0.528840
0.550340
0.574780
0.598240
0.617790
0.634410
0.652000
0.669600
0.685240
0.699900
0.712610
0.721410
0.727270
0.732160
0.734120
0.733140
0.730210
0.724340
0.717500
0.706740
0.694040
0.680350
0.666670
0.652980
0.639300
0.625610
0.615840
0.607040
0.599220
0.592380
0.587490
0.581620
0.578690
0.575760
0.571850
0.566960
0.564030
0.561090
0.559140
0.558160
0.559140
0.560120
0.559140
0.558160
0.557180
0.555230
0.553270
0.551320
0.548390
0.546430
0.543500
0.540570
0.538610
0.536660
0.534700
0.532750
0.529810
0.525900
0.521990
0.518080
0.515150
0.511240
0.507330
0.502440
0.498530
0.493650
0.488760
0.484850
0.481920
0.478010
0.476050
0.474100
0.473120
0.474100
0.478010
0.485830
0.495600
0.510260
0.528840
0.547410
0.565980
0.589440
0.615840
0.642230
0.666670
0.690130
0.710650
0.730210
0.744870
0.757580
0.767350
0.774190
0.776150
0.776150
0.773220
0.767350
0.758550
0.747800
0.735090
0.719450
0.702830
0.685240
0.668620
0.652980
0.635390
0.621700
0.611930
0.602150
0.593350
0.584560
0.578690
0.573800
0.571850
0.569890
0.566960
0.565000
0.563050
0.560120
0.558160
0.556210
0.555230
0.554250
0.553270
0.551320
0.548390
0.546430
0.544480
0.541540
0.537630
0.535680
0.532750
0.529810
0.526880
0.525900
0.523950
0.521020
0.516130
0.511240
0.504400
0.498530
0.491690
0.485830
0.481920
0.477030
0.473120
0.469210
0.465300
0.463340
0.460410
0.458460
0.458460
0.460410
0.465300
0.471160
0.478010
0.487780
0.502440
0.520040
0.540570
0.563050
0.588470
0.614860
0.641250
0.664710
0.688170
0.709680
0.727270
0.739000
0.748780
0.756600
0.760510
0.761490
0.759530
0.755620
0.749760
0.741940
0.730210
0.716520
0.699900
0.684260
0.668620
0.652000
0.636360
0.621700
0.608990
0.596290
0.584560
0.573800
0.565000
0.557180
0.552300
0.548390
0.544480
0.542520
0.540570
0.539590
0.538610
0.538610
0.538610
0.538610
0.537630
0.535680
0.533720
0.531770
0.530790
0.528840
0.525900
0.522970
0.519060
0.514170
0.510260
0.505380
0.500490
0.496580
0.491690
0.486800
0.482890
0.478980
0.475070
0.472140
0.469210
0.467250
0.464320
0.462370
0.460410
0.457480
0.455520
0.453570
0.450640
0.449660
0.448680
0.448680
0.451610
0.455520
0.460410
0.469210
0.480940
0.498530
0.518080
0.539590
0.563050
0.583580
0.603130
0.624630
0.646140
0.664710
0.680350
0.693060
0.701860
0.707720
0.675460
0.622680
0.593350
0.572830
0.559140
0.547410
0.536660
0.526880
0.516130
0.499510
0.485830
0.475070
0.464320
0.452590
0.443790
0.435000
0.428150
0.422290
0.415440
0.411530
0.408600
0.406650
0.404690
0.403710
0.402740
0.401760
0.399800
0.397850
0.395890
0.393940
0.391980
0.390030
0.388070
0.386120
0.384160
0.383190
0.381230
0.379280
0.377320
0.374390
0.371460
0.369500
0.366570
0.363640
0.360700
0.356790
0.352880
0.348970
0.345060
0.341150
0.336270
0.332360
0.331380
0.330400
0.330400
0.331380
0.330400
0.330400
0.329420
0.328450
0.328450
0.328450
0.330400
0.334310
0.340180
0.348000
0.356790
0.369500
0.385140
0.402740
0.421310
0.439880
0.459430
0.476050
0.491690
0.506350
0.518080
0.527860
0.533720
0.538610
0.541540
0.542520
0.541540
0.536660
0.529810
0.521020
0.510260
0.498530
0.486800
0.475070
0.463340
0.452590
0.442820
0.432060
0.421310
0.411530
0.402740
0.395890
0.391010
0.388070
0.386120
0.385140
0.385140
0.385140
0.386120
0.386120
0.386120
0.386120
0.385140
0.384160
0.382210
0.381230
0.379280
0.377320
0.375370
0.374390
0.372430
0.368520
0.364610
0.360700
0.356790
0.353860
0.349950
0.347020
0.343110
0.339200
0.335290
0.332360
0.330400
0.327470
0.323560
0.320630
0.316720
0.313780
0.309870
0.306940
0.304990
0.302050
0.299120
0.297170
0.295210
0.294230
0.293260
0.293260
0.294230
0.296190
0.301080
0.310850
0.323560
0.339200
0.357770
0.377320
0.394920
0.411530
0.428150
0.444770
0.460410
0.474100
0.485830
0.495600
0.502440
0.505380
0.506350
0.504400
0.499510
0.494620
0.487780
0.478980
0.468230
0.455520
0.441840
0.428150
0.415440
0.404690
0.393940
0.385140
0.376340
0.368520
0.363640
0.357770
0.352880
0.348970
0.345060
0.343110
0.341150
0.341150
0.340180
0.339200
0.339200
0.338220
0.337240
0.336270
0.335290
0.335290
0.335290
0.335290
0.335290
0.335290
0.335290
0.335290
0.335290
0.334310
0.332360
0.331380
0.328450
0.326490
0.324540
0.322580
0.321600
0.319650
0.318670
0.316720
0.314760
0.311830
0.307920
0.305960
0.304010
0.300100
0.296190
0.291300
0.286410
0.283480
0.282500
0.281520
0.283480
0.287390
0.294230
0.302050
0.312810
0.327470
0.344090
0.361680
0.381230
0.401760
0.422290
0.441840
0.460410
0.477030
0.491690
0.503420
0.512220
0.518080
0.521990
0.523950
0.524930
0.521990
0.517110
0.509290
0.500490
0.489740
0.477030
0.464320
0.453570
0.443790
0.434020
0.442820
0.461390
0.466280
0.467250
0.464320
0.462370
0.460410
0.458460
0.458460
0.459430
0.460410
0.461390
0.462370
0.464320
0.465300
0.466280
0.467250
0.467250
0.467250
0.467250
0.467250
0.466280
0.466280
0.465300
0.465300
0.465300
0.465300
0.465300
0.464320
0.463340
0.462370
0.461390
0.459430
0.458460
0.456500
0.455520
0.454550
0.453570
0.451610
0.450640
0.448680
0.447700
0.445750
0.444770
0.442820
0.441840
0.440860
0.439880
0.440860
0.442820
0.446730
0.452590
0.460410
0.472140
0.486800
0.503420
0.521990
0.541540
0.560120
0.578690
0.593350
0.605080
0.616810
0.628540
0.637340
0.644180
0.648090
0.649070
0.648090
0.644180
0.638320
0.631480
0.623660
0.613880
0.604110
0.592380
0.580650
0.568910
0.558160
0.546430
0.536660
0.526880
0.519060
0.512220
0.507330
0.503420
0.500490
0.497560
0.494620
0.493650
0.492670
0.491690
0.491690
0.491690
0.491690
0.491690
0.490710
0.489740
0.488760
0.485830
0.483870
0.480940
0.478010
0.475070
0.472140
0.469210
0.467250
0.466280
0.464320
0.463340
0.462370
0.460410
0.459430
0.458460
0.456500
0.455520
0.453570
0.452590
0.450640
0.449660
0.447700
0.446730
0.445750
0.445750
0.445750
0.446730
0.447700
0.450640
0.455520
0.463340
0.474100
0.488760
0.505380
0.523950
0.541540
0.558160
0.575760
0.593350
0.608990
0.624630
0.637340
0.647120
0.654940
0.659820
0.662760
0.663730
0.661780
0.658850
0.654940
0.649070
0.642230
0.632450
0.620720
0.608990
0.597260
0.584560
0.572830
0.562070
0.551320
0.542520
0.535680
0.527860
0.521020
0.516130
0.513200
0.511240
0.510260
0.510260
0.509290
0.509290
0.508310
0.507330
0.507330
0.506350
0.506350
0.506350
0.506350
0.504400
0.503420
0.501470
0.498530
0.495600
0.492670
0.489740
0.487780
0.484850
0.481920
0.478980
0.475070
0.471160
0.467250
0.463340
0.459430
0.456500
0.453570
0.449660
0.447700
0.445750
0.444770
0.442820
0.441840
0.439880
0.438910
0.438910
0.439880
0.442820
0.447700
0.455520
0.464320
0.475070
0.485830
0.501470
0.519060
0.538610
0.558160
0.577710
0.595310
0.610950
0.624630
0.637340
0.646140
0.652000
0.654940
0.654940
0.652980
0.650050
0.641250
0.633430
0.623660
0.611930
0.599220
0.584560
0.570870
0.559140
0.548390
0.538610
0.528840
0.520040
0.512220
0.506350
0.502440
0.498530
0.496580
0.495600
0.495600
0.494620
0.494620
0.493650
0.492670
0.490710
0.487780
0.484850
0.481920
0.478980
0.467250
0.445750
0.427170
0.413490
0.409580
0.406650
0.403710
0.399800
0.396870
0.392960
0.388070
0.384160
0.380250
0.376340
0.373410
0.370480
0.367550
0.365590
0.361680
0.358750
0.354840
0.352880
0.350930
0.348970
0.348000
0.348000
0.348970
0.351910
0.354840
0.359730
0.367550
0.385140
0.400780
0.418380
0.447700
0.467250
0.485830
0.503420
0.519060
0.531770
0.542520
0.549360
0.556210
0.560120
0.561090
0.561090
0.559140
0.554250
0.547410
0.538610
0.521020
0.508310
0.496580
0.478980
0.467250
0.456500
0.445750
0.436950
0.428150
0.421310
0.415440
0.410560
0.406650
0.403710
0.401760
0.398830
0.396870
0.395890
0.393940
0.391980
0.390030
0.387100
0.383190
0.380250
0.376340
0.373410
0.371460
0.369500
0.366570
0.362660
0.358750
0.355820
0.351910
0.348000
0.343110
0.338220
0.334310
0.330400
0.328450
0.325510
0.323560
0.320630
0.315740
0.311830
0.307920
0.305960
0.304010
0.302050
0.300100
0.299120
0.298140
0.299120
0.301080
0.303030
0.304990
0.308900
0.314760
0.323560
0.335290
0.349950
0.366570
0.384160
0.403710
0.420330
0.435000
0.450640
0.465300
0.479960
0.491690
0.501470
0.507330
0.511240
0.512220
0.512220
0.509290
0.505380
0.501470
0.496580
0.488760
0.478980
0.468230
0.457480
0.445750
0.435000
0.424240
0.414470
0.405670
0.397850
0.392960
0.388070
0.383190
0.379280
0.375370
0.373410
0.371460
0.369500
0.367550
0.365590
0.363640
0.362660
0.362660
0.361680
0.361680
0.359730
0.358750
0.356790
0.353860
0.350930
0.348000
0.345060
0.342130
0.340180
0.337240
0.335290
0.333330
0.331380
0.328450
0.326490
0.324540
0.321600
0.318670
0.315740
0.311830
0.308900
0.306940
0.304990
0.304010
0.304010
0.303030
0.303030
0.304010
0.305960
0.308900
0.312810
0.318670
0.326490
0.335290
0.347020
0.357770
0.369500
0.384160
0.399800
0.416420
0.432060
0.447700
0.460410
0.473120
0.484850
0.493650
0.499510
0.503420
0.505380
0.505380
0.502440
0.498530
0.491690
0.484850
0.476050
0.466280
0.456500
0.446730
0.437930
0.429130
0.422290
0.416420
0.411530
0.407620
0.404690
0.402740
0.400780
0.399800
0.399800
0.399800
0.399800
0.399800
0.399800
0.400780
0.401760
0.403710
0.404690
0.405670
0.405670
0.405670
0.405670
0.404690
0.404690
0.403710
0.402740
0.401760
0.400780
0.399800
0.398830
0.396870
0.395890
0.394920
0.393940
0.391980
0.390030
0.388070
0.384160
0.380250
0.377320
0.375370
0.372430
0.388070
0.413490
0.425220
0.431090
0.433040
0.435000
0.437930
0.441840
0.447700
0.453570
0.461390
0.471160
0.482890
0.496580
0.511240
0.525900
0.540570
0.554250
0.565980
0.576740
0.585530
0.591400
0.596290
0.598240
0.600200
0.600200
0.598240
0.595310
0.590420
0.584560
0.578690
0.570870
0.563050
0.554250
0.546430
0.538610
0.531770
0.524930
0.518080
0.512220
0.506350
0.501470
0.497560
0.493650
0.490710
0.487780
0.486800
0.486800
0.485830
0.484850
0.483870
0.482890
0.480940
0.479960
0.478980
0.478980
0.478010
0.478010
0.478010
0.478010
0.478010
0.477030
0.476050
0.474100
0.473120
0.471160
0.470190
0.468230
0.467250
0.465300
0.463340
0.462370
0.461390
0.460410
0.458460
0.457480
0.455520
0.454550
0.452590
0.451610
0.449660
0.448680
0.446730
0.444770
0.443790
0.443790
0.444770
0.447700
0.452590
0.460410
0.470190
0.480940
0.494620
0.508310
0.521990
0.535680
0.545450
0.554250
0.564030
0.571850
0.578690
0.584560
0.589440
0.592380
0.593350
0.593350
0.590420
0.586510
0.581620
0.576740
0.570870
0.564030
0.557180
0.548390
0.538610
0.529810
0.521020
0.513200
0.506350
0.500490
0.495600
0.491690
0.488760
0.487780
0.486800
0.485830
0.485830
0.485830
0.485830
0.485830
0.484850
0.483870
0.481920
0.480940
0.478980
0.478010
0.477030
0.476050
0.474100
0.473120
0.471160
0.470190
0.470190
0.469210
0.469210
0.468230
0.467250
0.466280
0.465300
0.463340
0.462370
0.460410
0.459430
0.457480
0.454550
0.452590
0.448680
0.445750
0.442820
0.440860
0.438910
0.437930
0.435970
0.434020
0.433040
0.432060
0.432060
0.433040
0.435000
0.437930
0.443790
0.450640
0.459430
0.470190
0.481920
0.493650
0.506350
0.518080
0.528840
0.539590
0.548390
0.555230
0.561090
0.565000
0.567940
0.569890
0.569890
0.568910
0.565980
0.562070
0.557180
0.550340
0.541540
0.531770
0.522970
0.513200
0.505380
0.497560
0.489740
0.482890
0.478010
0.474100
0.471160
0.469210
0.470190
0.470190
0.471160
0.470190
0.469210
0.468230
0.467250
0.467250
0.466280
0.466280
0.466280
0.467250
0.468230
0.469210
0.470190
0.470190
0.470190
0.469210
0.469210
0.467250
0.463340
0.460410
0.456500
0.454550
0.451610
0.449660
0.448680
0.446730
0.444770
0.443790
0.442820
0.440860
0.438910
0.436950
0.434020
0.431090
0.428150
0.426200
0.424240
0.422290
0.421310
0.420330
0.419350
0.419350
0.419350
0.420330
0.421310
0.424240
0.429130
0.435970
0.444770
0.453570
0.458460
0.463340
0.471160
0.481920
0.494620
0.507330
0.519060
0.530790
0.540570
0.548390
0.553270
0.556210
0.556210
0.553270
0.547410
0.541540
0.534700
0.525900
0.516130
0.505380
0.493650
0.481920
0.469210
0.458460
0.447700
0.438910
0.432060
0.426200
0.421310
0.416420
0.412510
0.410560
0.407620
0.405670
0.403710
0.402740
0.402740
0.402740
0.403710
0.403710
0.402740
0.401760
0.400780
0.398830
0.396870
0.394920
0.392960
0.391010
0.389050
0.387100
0.385140
0.384160
0.384160
0.385140
0.384160
0.384160
0.382210
0.379280
0.376340
0.372430
0.369500
0.366570
0.363640
0.359730
0.357770
0.355820
0.353860
0.350930
0.347020
0.343110
0.339200
0.334310
0.331380
0.328450
0.327470
0.327470
0.326490
0.327470
0.327470
0.329420
0.332360
0.338220
0.346040
0.356790
0.369500
0.385140
0.402740
0.421310
0.437930
0.452590
0.464320
0.473120
0.480940
0.487780
0.491690
0.494620
0.494620
0.493650
0.490710
0.486800
0.479960
0.472140
0.464320
0.457480
0.448680
0.439880
0.430110
0.419350
0.409580
0.400780
0.393940
0.389050
0.384160
0.380250
0.377320
0.376340
0.377320
0.377320
0.379280
0.382210
0.386120
0.389050
0.390030
0.391010
0.391010
0.391980
0.391980
0.391980
0.391010
0.390030
0.388070
0.385140
0.384160
0.384160
0.383190
0.383190
0.383190
0.383190
0.383190
0.382210
0.381230
0.380250
0.380250
0.379280
0.377320
0.375370
0.371460
0.369500
0.366570
0.364610
0.362660
0.359730
0.358750
0.357770
0.356790
0.354840
0.354840
0.353860
0.353860
0.354840
0.357770
0.360700
0.365590
0.372430
0.380250
0.389050
0.399800
0.412510
0.428150
0.444770
0.461390
0.478010
0.493650
0.508310
0.520040
0.529810
0.536660
0.540570
0.543500
0.544480
0.544480
0.541540
0.537630
0.532750
0.526880
0.520040
0.512220
0.504400
0.496580
0.487780
0.480940
0.474100
0.466280
0.461390
0.457480
0.454550
0.451610
0.449660
0.447700
0.444770
0.443790
0.442820
0.442820
0.442820
0.442820
0.443790
0.445750
0.447700
0.449660
0.451610
0.453570
0.454550
0.454550
0.454550
0.455520
0.455520
0.455520
0.454550
0.453570
0.451610
0.449660
0.447700
0.444770
0.442820
0.440860
0.438910
0.436950
0.435000
0.434020
0.432060
0.430110
0.428150
0.426200
0.424240
0.422290
0.420330
0.417400
0.415440
0.413490
0.410560
0.409580
0.407620
0.407620
0.409580
0.414470
0.421310
0.432060
0.445750
0.460410
0.477030
0.494620
0.512220
0.525900
0.537630
0.549360
0.559140
0.580650
0.607040
0.621700
0.630500
0.634410
0.635390
0.633430
0.629520
0.625610
0.619750
0.612900
0.605080
0.595310
0.585530
0.575760
0.565980
0.557180
0.548390
0.539590
0.532750
0.527860
0.523950
0.521990
0.521020
0.521020
0.522970
0.524930
0.526880
0.528840
0.529810
0.530790
0.530790
0.529810
0.528840
0.526880
0.525900
0.524930
0.524930
0.523950
0.521990
0.520040
0.517110
0.515150
0.512220
0.509290
0.508310
0.507330
0.507330
0.506350
0.506350
0.505380
0.505380
0.503420
0.502440
0.501470
0.499510
0.497560
0.495600
0.493650
0.492670
0.490710
0.488760
0.486800
0.484850
0.482890
0.480940
0.479960
0.479960
0.482890
0.487780
0.494620
0.502440
0.509290
0.519060
0.530790
0.545450
0.561090
0.576740
0.593350
0.608020
0.622680
0.634410
0.644180
0.650050
0.654940
0.657870
0.659820
0.659820
0.658850
0.653960
0.649070
0.641250
0.632450
0.622680
0.611930
0.601170
0.590420
0.581620
0.573800
0.565000
0.559140
0.553270
0.548390
0.543500
0.540570
0.537630
0.535680
0.533720
0.533720
0.533720
0.532750
0.532750
0.532750
0.532750
0.532750
0.532750
0.532750
0.532750
0.532750
0.531770
0.529810
0.527860
0.524930
0.521020
0.517110
0.513200
0.510260
0.507330
0.504400
0.503420
0.503420
0.502440
0.501470
0.499510
0.498530
0.497560
0.495600
0.493650
0.491690
0.488760
0.486800
0.484850
0.481920
0.477030
0.473120
0.469210
0.467250
0.465300
0.464320
0.465300
0.469210
0.476050
0.485830
0.496580
0.509290
0.523950
0.540570
0.556210
0.569890
0.581620
0.595310
0.608990
0.621700
0.632450
0.640270
0.646140
0.649070
0.650050
0.649070
0.647120
0.643210
0.638320
0.632450
0.624630
0.615840
0.605080
0.593350
0.579670
0.566960
0.555230
0.545450
0.535680
0.527860
0.521990
0.518080
0.513200
0.510260
0.509290
0.508310
0.507330
0.507330
0.507330
0.507330
0.507330
0.507330
0.507330
0.507330
0.507330
0.507330
0.506350
0.505380
0.503420
0.501470
0.499510
0.498530
0.496580
0.495600
0.493650
0.492670
0.491690
0.490710
0.489740
0.488760
0.487780
0.486800
0.484850
0.482890
0.480940
0.478010
0.476050
0.475070
0.474100
0.473120
0.472140
0.471160
0.469210
0.467250
0.465300
0.463340
0.462370
0.461390
0.463340
0.468230
0.474100
0.481920
0.491690
0.503420
0.517110
0.532750
0.548390
0.564030
0.577710
0.590420
0.600200
0.608990
0.614860
0.617790
0.620720
0.620720
0.619750
0.617790
0.612900
0.607040
0.599220
0.590420
0.580650
0.553270
0.518080
0.494620
0.478980
0.465300
0.453570
0.442820
0.434020
0.427170
0.424240
0.422290
0.421310
0.421310
0.420330
0.420330
0.421310
0.422290
0.422290
0.423260
0.425220
0.426200
0.426200
0.427170
0.428150
0.427170
0.426200
0.425220
0.424240
0.422290
0.420330
0.418380
0.415440
0.413490
0.410560
0.407620
0.405670
0.402740
0.400780
0.399800
0.398830
0.397850
0.396870
0.393940
0.391980
0.389050
0.387100
0.384160
0.381230
0.378300
0.375370
0.371460
0.366570
0.364610
0.361680
0.359730
0.358750
0.359730
0.362660
0.368520
0.377320
0.389050
0.402740
0.418380
0.434020
0.449660
0.464320
0.478980
0.493650
0.506350
0.517110
0.524930
0.528840
0.528840
0.525900
0.520040
0.512220
0.503420
0.494620
0.486800
0.476050
0.464320
0.450640
0.436950
0.424240
0.411530
0.399800
0.389050
0.380250
0.371460
0.364610
0.358750
0.354840
0.352880
0.352880
0.353860
0.353860
0.353860
0.352880
0.351910
0.351910
0.350930
0.350930
0.350930
0.350930
0.350930
0.350930
0.349950
0.347020
0.344090
0.341150
0.336270
0.333330
0.331380
0.330400
0.330400
0.331380
0.332360
0.331380
0.329420
0.325510
0.320630
0.315740
0.310850
0.305960
0.300100
0.295210
0.290320
0.287390
0.287390
0.286410
0.284460
0.281520
0.279570
0.277610
0.276640
0.276640
0.277610
0.281520
0.288370
0.297170
0.307920
0.322580
0.338220
0.355820
0.375370
0.396870
0.418380
0.437930
0.455520
0.471160
0.485830
0.496580
0.504400
0.509290
0.512220
0.514170
0.514170
0.512220
0.507330
0.499510
0.489740
0.477030
0.464320
0.452590
0.441840
0.434020
0.426200
0.420330
0.415440
0.412510
0.411530
0.412510
0.414470
0.418380
0.422290
0.427170
0.431090
0.433040
0.435970
0.438910
0.439880
0.440860
0.440860
0.441840
0.444770
0.447700
0.449660
0.450640
0.451610
0.451610
0.451610
0.451610
0.450640
0.449660
0.446730
0.442820
0.438910
0.435970
0.435000
0.434020
0.434020
0.433040
0.433040
0.433040
0.432060
0.432060
0.431090
0.429130
0.426200
0.424240
0.421310
0.420330
0.420330
0.423260
0.427170
0.432060
0.438910
0.448680
0.461390
0.476050
0.493650
0.512220
0.530790
0.549360
0.566960
0.582600
0.593350
0.601170
0.608020
0.612900
0.615840
0.617790
0.617790
0.614860
0.609970
0.603130
0.594330
0.583580
0.571850
0.560120
0.548390
0.535680
0.522970
0.511240
0.500490
0.488760
0.479960
0.472140
0.466280
0.463340
0.461390
0.460410
0.457480
0.456500
0.453570
0.451610
0.463340
0.481920
0.491690
0.495600
0.498530
0.502440
0.505380
0.508310
0.510260
0.511240
0.510260
0.507330
0.501470
0.495600
0.490710
0.486800
0.483870
0.482890
0.484850
0.486800
0.488760
0.490710
0.490710
0.490710
0.488760
0.486800
0.485830
0.484850
0.483870
0.484850
0.484850
0.484850
0.485830
0.486800
0.486800
0.487780
0.488760
0.492670
0.499510
0.508310
0.520040
0.533720
0.548390
0.563050
0.578690
0.591400
0.602150
0.612900
0.623660
0.633430
0.641250
0.649070
0.653960
0.658850
0.661780
0.664710
0.665690
0.665690
0.665690
0.663730
0.659820
0.652980
0.643210
0.631480
0.617790
0.603130
0.588470
0.574780
0.563050
0.553270
0.548390
0.545450
0.543500
0.544480
0.545450
0.548390
0.550340
0.552300
0.552300
0.552300
0.550340
0.548390
0.547410
0.547410
0.546430
0.546430
0.546430
0.546430
0.546430
0.544480
0.541540
0.538610
0.534700
0.531770
0.527860
0.524930
0.521020
0.518080
0.513200
0.509290
0.505380
0.500490
0.496580
0.492670
0.489740
0.486800
0.483870
0.480940
0.478980
0.477030
0.475070
0.473120
0.471160
0.470190
0.471160
0.472140
0.475070
0.478980
0.482890
0.488760
0.494620
0.501470
0.511240
0.522970
0.537630
0.552300
0.565000
0.576740
0.588470
0.598240
0.607040
0.612900
0.617790
0.619750
0.619750
0.617790
0.614860
0.608990
0.602150
0.593350
0.583580
0.572830
0.561090
0.548390
0.537630
0.527860
0.520040
0.511240
0.503420
0.496580
0.491690
0.487780
0.486800
0.486800
0.486800
0.487780
0.487780
0.487780
0.486800
0.486800
0.487780
0.487780
0.487780
0.487780
0.487780
0.486800
0.486800
0.485830
0.483870
0.481920
0.480940
0.478980
0.478010
0.474100
0.470190
0.466280
0.462370
0.459430
0.456500
0.454550
0.451610
0.449660
0.447700
0.446730
0.444770
0.442820
0.440860
0.438910
0.435970
0.434020
0.431090
0.427170
0.424240
0.422290
0.421310
0.421310
0.423260
0.427170
0.434020
0.443790
0.456500
0.470190
0.482890
0.497560
0.512220
0.525900
0.538610
0.549360
0.557180
0.563050
0.566960
0.570870
0.571850
0.571850
0.569890
0.566960
0.562070
0.557180
0.553270
0.547410
0.541540
0.535680
0.526880
0.516130
0.504400
0.493650
0.482890
0.474100
0.467250
0.462370
0.459430
0.457480
0.456500
0.457480
0.459430
0.460410
0.462370
0.465300
0.467250
0.469210
0.471160
0.472140
0.473120
0.473120
0.473120
0.474100
0.474100
0.474100
0.473120
0.471160
0.469210
0.468230
0.468230
0.468230
0.468230
0.467250
0.452590
0.431090
0.419350
0.411530
0.403710
0.396870
0.391980
0.387100
0.382210
0.379280
0.375370
0.371460
0.368520
0.365590
0.362660
0.360700
0.359730
0.357770
0.357770
0.356790
0.357770
0.358750
0.362660
0.367550
0.375370
0.385140
0.395890
0.408600
0.422290
0.436950
0.451610
0.465300
0.478010
0.488760
0.494620
0.497560
0.496580
0.493650
0.486800
0.479960
0.472140
0.460410
0.447700
0.435000
0.423260
0.410560
0.397850
0.385140
0.374390
0.364610
0.356790
0.349950
0.346040
0.341150
0.336270
0.331380
0.326490
0.322580
0.319650
0.316720
0.313780
0.310850
0.307920
0.304010
0.300100
0.297170
0.294230
0.291300
0.289350
0.288370
0.286410
0.283480
0.280550
0.278590
0.275660
0.273700
0.271750
0.271750
0.269790
0.268820
0.268820
0.269790
0.271750
0.273700
0.275660
0.278590
0.280550
0.281520
0.281520
0.282500
0.283480
0.284460
0.284460
0.284460
0.284460
0.284460
0.285430
0.286410
0.288370
0.290320
0.294230
0.300100
0.308900
0.320630
0.335290
0.352880
0.371460
0.391980
0.413490
0.433040
0.452590
0.469210
0.484850
0.498530
0.508310
0.514170
0.520040
0.521990
0.521990
0.520040
0.515150
0.510260
0.505380
0.500490
0.495600
0.487780
0.480940
0.473120
0.465300
0.455520
0.447700
0.440860
0.435970
0.432060
0.428150
0.427170
0.427170
0.429130
0.431090
0.433040
0.435000
0.435970
0.435970
0.436950
0.437930
0.437930
0.438910
0.438910
0.438910
0.438910
0.438910
0.438910
0.438910
0.438910
0.438910
0.438910
0.438910
0.438910
0.439880
0.440860
0.440860
0.440860
0.440860
0.440860
0.439880
0.437930
0.436950
0.435970
0.435000
0.432060
0.430110
0.428150
0.426200
0.427170
0.429130
0.431090
0.433040
0.435000
0.435970
0.438910
0.445750
0.455520
0.469210
0.484850
0.502440
0.520040
0.536660
0.551320
0.564030
0.573800
0.584560
0.594330
0.601170
0.606060
0.608020
0.609970
0.608990
0.606060
0.601170
0.595310
0.588470
0.581620
0.572830
0.563050
0.551320
0.537630
0.524930
0.513200
0.501470
0.491690
0.480940
0.472140
0.465300
0.460410
0.455520
0.452590
0.450640
0.449660
0.448680
0.448680
0.448680
0.448680
0.448680
0.448680
0.448680
0.449660
0.450640
0.450640
0.452590
0.454550
0.455520
0.455520
0.455520
0.455520
0.453570
0.451610
0.450640
0.448680
0.446730
0.445750
0.443790
0.441840
0.439880
0.437930
0.435000
0.433040
0.430110
0.428150
0.425220
0.424240
0.425220
0.426200
0.428150
0.428150
0.428150
0.427170
0.441840
0.467250
0.480940
0.489740
0.496580
0.505380
0.516130
0.526880
0.537630
0.551320
0.565000
0.577710
0.591400
0.602150
0.610950
0.617790
0.622680
0.625610
0.627570
0.626590
0.624630
0.621700
0.617790
0.612900
0.606060
0.599220
0.590420
0.581620
0.570870
0.560120
0.550340
0.541540
0.533720
0.527860
0.521020
0.515150
0.510260
0.506350
0.503420
0.502440
0.501470
0.500490
0.499510
0.498530
0.498530
0.498530
0.498530
0.499510
0.499510
0.499510
0.499510
0.498530
0.496580
0.495600
0.493650
0.491690
0.489740
0.488760
0.487780
0.485830
0.483870
0.482890
0.480940
0.479960
0.478010
0.477030
0.477030
0.476050
0.475070
0.473120
0.472140
0.471160
0.469210
0.468230
0.465300
0.463340
0.460410
0.458460
0.455520
0.454550
0.453570
0.455520
0.457480
0.462370
0.469210
0.478980
0.488760
0.499510
0.511240
0.522970
0.533720
0.544480
0.555230
0.565000
0.572830
0.579670
0.585530
0.590420
0.593350
0.594330
0.593350
0.590420
0.586510
0.580650
0.572830
0.565000
0.558160
0.551320
0.543500
0.534700
0.525900
0.517110
0.509290
0.502440
0.496580
0.492670
0.489740
0.489740
0.490710
0.492670
0.493650
0.495600
0.496580
0.497560
0.497560
0.497560
0.497560
0.496580
0.496580
0.495600
0.494620
0.493650
0.492670
0.493650
0.493650
0.493650
0.493650
0.493650
0.494620
0.494620
0.494620
0.494620
0.494620
0.492670
0.491690
0.490710
0.488760
0.486800
0.482890
0.479960
0.478010
0.476050
0.474100
0.473120
0.473120
0.473120
0.473120
0.474100
0.474100
0.474100
0.474100
0.475070
0.476050
0.478010
0.481920
0.487780
0.495600
0.505380
0.517110
0.527860
0.538610
0.549360
0.560120
0.570870
0.579670
0.587490
0.593350
0.597260
0.600200
0.600200
0.599220
0.597260
0.593350
0.589440
0.584560
0.577710
0.569890
0.561090
0.553270
0.545450
0.537630
0.530790
0.523950
0.519060
0.515150
0.512220
0.508310
0.505380
0.502440
0.501470
0.499510
0.498530
0.498530
0.498530
0.498530
0.498530
0.498530
0.498530
0.499510
0.499510
0.499510
0.499510
0.499510
0.498530
0.496580
0.495600
0.493650
0.491690
0.490710
0.489740
0.489740
0.488760
0.488760
0.487780
0.486800
0.485830
0.483870
0.482890
0.480940
0.478980
0.477030
0.474100
0.473120
0.471160
0.470190
0.469210
0.469210
0.468230
0.468230
0.467250
0.466280
0.466280
0.467250
0.468230
0.470190
0.474100
0.480940
0.489740
0.499510
0.511240
0.524930
0.537630
0.550340
0.561090
0.570870
0.578690
0.578690
0.572830
0.568910
0.566960
0.564030
0.559140
0.553270
0.546430
0.537630
0.527860
0.519060
0.510260
0.499510
0.489740
0.478980
0.467250
0.456500
0.447700
0.439880
0.433040
0.426200
0.421310
0.417400
0.414470
0.413490
0.413490
0.414470
0.416420
0.418380
0.418380
0.417400
0.415440
0.411530
0.405670
0.400780
0.395890
0.392960
0.391010
0.391010
0.391980
0.393940
0.393940
0.392960
0.390030
0.386120
0.381230
0.377320
0.372430
0.368520
0.365590
0.364610
0.364610
0.364610
0.365590
0.366570
0.367550
0.366570
0.363640
0.359730
0.355820
0.352880
0.350930
0.348000
0.347020
0.347020
0.347020
0.348970
0.351910
0.357770
0.366570
0.378300
0.391980
0.408600
0.426200
0.444770
0.460410
0.475070
0.489740
0.503420
0.516130
0.526880
0.535680
0.541540
0.544480
0.544480
0.542520
0.539590
0.535680
0.530790
0.524930
0.519060
0.511240
0.501470
0.490710
0.478980
0.468230
0.457480
0.449660
0.442820
0.438910
0.435970
0.435000
0.435970
0.436950
0.438910
0.440860
0.443790
0.445750
0.448680
0.450640
0.452590
0.453570
0.454550
0.455520
0.455520
0.457480
0.458460
0.459430
0.461390
0.462370
0.463340
0.464320
0.464320
0.464320
0.464320
0.464320
0.463340
0.462370
0.460410
0.459430
0.458460
0.457480
0.455520
0.454550
0.452590
0.450640
0.449660
0.448680
0.447700
0.447700
0.446730
0.446730
0.446730
0.448680
0.452590
0.461390
0.474100
0.490710
0.508310
0.527860
0.544480
0.560120
0.577710
0.595310
0.610950
0.625610
0.639300
0.649070
0.656890
0.661780
0.663730
0.663730
0.661780
0.657870
0.653960
0.649070
0.642230
0.633430
0.622680
0.609970
0.597260
0.585530
0.574780
0.565000
0.557180
0.550340
0.545450
0.541540
0.538610
0.537630
0.537630
0.538610
0.539590
0.541540
0.542520
0.543500
0.543500
0.544480
0.545450
0.546430
0.547410
0.547410
0.547410
0.546430
0.544480
0.542520
0.539590
0.536660
0.533720
0.529810
0.524930
0.521020
0.516130
0.512220
0.507330
0.503420
0.498530
0.493650
0.489740
0.484850
0.479960
0.476050
0.472140
0.469210
0.467250
0.464320
0.463340
0.464320
0.466280
0.471160
0.478980
0.490710
0.504400
0.520040
0.537630
0.554250
0.568910
0.585530
0.603130
0.620720
0.637340
0.651030
0.662760
0.670580
0.676440
0.680350
0.681330
0.680350
0.678400
0.675460
0.671550
0.665690
0.658850
0.651030
0.641250
0.629520
0.616810
0.605080
0.592380
0.581620
0.570870
0.561090
0.551320
0.542520
0.535680
0.530790
0.522970
0.514170
0.510260
0.509290
0.509290
0.510260
0.510260
0.511240
0.510260
0.510260
0.509290
0.507330
0.506350
0.504400
0.502440
0.500490
0.499510
0.497560
0.496580
0.495600
0.494620
0.492670
0.491690
0.488760
0.485830
0.483870
0.480940
0.478980
0.477030
0.476050
0.474100
0.473120
0.471160
0.468230
0.465300
0.463340
0.460410
0.458460
0.457480
0.456500
0.456500
0.458460
0.462370
0.468230
0.474100
0.480940
0.488760
0.498530
0.508310
0.518080
0.529810
0.540570
0.550340
0.559140
0.566960
0.574780
0.579670
0.582600
0.585530
0.586510
0.587490
0.585530
0.582600
0.578690
0.572830
0.565980
0.558160
0.550340
0.543500
0.536660
0.529810
0.522970
0.516130
0.509290
0.503420
0.496580
0.491690
0.488760
0.486800
0.487780
0.489740
0.491690
0.493650
0.495600
0.497560
0.498530
0.499510
0.499510
0.497560
0.496580
0.494620
0.492670
0.490710
0.488760
0.487780
0.485830
0.484850
0.482890
0.481920
0.479960
0.478010
0.476050
0.474100
0.471160
0.469210
0.466280
0.463340
0.461390
0.458460
0.457480
0.455520
0.454550
0.452590
0.452590
0.451610
0.451610
0.451610
0.452590
0.454550
0.455520
0.456500
0.458460
0.462370
0.468230
0.475070
0.484850
0.495600
0.507330
0.520040
0.530790
0.540570
0.548390
0.554250
0.559140
0.564030
0.566960
0.568910
0.569890
0.568910
0.565980
0.562070
0.556210
0.549360
0.542520
0.534700
0.527860
0.519060
0.511240
0.503420
0.496580
0.489740
0.484850
0.480940
0.477030
0.474100
0.472140
0.471160
0.471160
0.470190
0.470190
0.470190
0.470190
0.470190
0.469210
0.467250
0.465300
0.464320
0.462370
0.460410
0.458460
0.457480
0.456500
0.455520
0.455520
0.454550
0.453570
0.452590
0.450640
0.449660
0.447700
0.446730
0.445750
0.444770
0.444770
0.443790
0.441840
0.440860
0.438910
0.437930
0.435970
0.435000
0.432060
0.429130
0.427170
0.424240
0.423260
0.421310
0.421310
0.421310
0.424240
0.427170
0.433040
0.438910
0.446730
0.454550
0.463340
0.471160
0.478010
0.485830
0.493650
0.501470
0.507330
0.512220
0.517110
0.519060
0.520040
0.519060
0.516130
0.512220
0.508310
0.503420
0.496580
0.489740
0.481920
0.473120
0.465300
0.457480
0.449660
0.442820
0.436950
0.431090
0.427170
0.424240
0.420330
0.417400
0.415440
0.413490
0.412510
0.412510
0.413490
0.413490
0.413490
0.412510
0.411530
0.411530
0.410560
0.410560
0.410560
0.410560
0.410560
0.410560
0.410560
0.410560
0.410560
0.410560
0.410560
0.409580
0.407620
0.406650
0.406650
0.406650
0.406650
0.405670
0.405670
0.404690
0.403710
0.401760
0.399800
0.399800
0.397850
0.396870
0.395890
0.394920
0.393940
0.392960
0.392960
0.392960
0.392960
0.393940
0.396870
0.401760
0.407620
0.414470
0.423260
0.435000
0.447700
0.459430
0.472140
0.483870
0.494620
0.502440
0.507330
0.511240
0.512220
0.513200
0.512220
0.511240
0.509290
0.507330
0.505380
0.502440
0.498530
0.493650
0.486800
0.478980
0.470190
0.462370
0.456500
0.449660
0.443790
0.438910
0.435000
0.433040
0.433040
0.434020
0.435000
0.435970
0.435970
0.435970
0.435970
0.435970
0.435970
0.436950
0.437930
0.439880
0.440860
0.442820
0.443790
0.445750
0.446730
0.447700
0.447700
0.448680
0.447700
0.447700
0.447700
0.446730
0.445750
0.444770
0.443790
0.442820
0.441840
0.440860
0.441840
0.441840
0.441840
0.441840
0.440860
0.440860
0.440860
0.440860
0.441840
0.442820
0.443790
0.445750
0.447700
0.449660
0.452590
0.457480
0.462370
0.470190
0.479960
0.489740
0.501470
0.513200
0.524930
0.535680
0.544480
0.551320
0.555230
0.559140
0.562070
0.565000
0.566960
0.567940
0.567940
0.565980
0.562070
0.557180
0.551320
0.544480
0.537630
0.531770
0.523950
0.517110
0.509290
0.502440
0.495600
0.490710
0.487780
0.485830
0.485830
0.485830
0.485830
0.486800
0.487780
0.488760
0.488760
0.489740
0.490710
0.491690
0.491690
0.491690
0.491690
0.491690
0.491690
0.491690
0.491690
0.491690
0.491690
0.491690
0.491690
0.490710
0.488760
0.486800
0.484850
0.483870
0.482890
0.481920
0.480940
0.479960
0.478010
0.477030
0.475070
0.474100
0.472140
0.470190
0.468230
0.466280
0.464320
0.462370
0.461390
0.460410
0.461390
0.463340
0.468230
0.475070
0.484850
0.495600
0.508310
0.521990
0.535680
0.548390
0.558160
0.565000
0.572830
0.578690
0.583580
0.588470
0.591400
0.593350
0.593350
0.592380
0.589440
0.585530
0.580650
0.574780
0.568910
0.562070
0.554250
0.546430
0.538610
0.531770
0.525900
0.519060
0.514170
0.508310
0.504400
0.502440
0.500490
0.500490
0.500490
0.500490
0.501470
0.501470
0.501470
0.501470
0.501470
0.501470
0.501470
0.501470
0.500490
0.498530
0.497560
0.497560
0.497560
0.496580
0.495600
0.494620
0.493650
0.492670
0.491690
0.490710
0.490710
0.490710
0.490710
0.488760
0.486800
0.483870
0.480940
0.478010
0.475070
0.472140
0.469210
0.467250
0.466280
0.465300
0.463340
0.461390
0.459430
0.458460
0.457480
0.459430
0.463340
0.467250
0.472140
0.478980
0.486800
0.495600
0.503420
0.513200
0.523950
0.533720
0.543500
0.553270
0.561090
0.567940
0.572830
0.576740
0.578690
0.579670
0.578690
0.576740
0.573800
0.568910
0.563050
0.555230
0.547410
0.537630
0.528840
0.520040
0.513200
0.506350
0.501470
0.497560
0.494620
0.491690
0.488760
0.485830
0.484850
0.484850
0.484850
0.484850
0.485830
0.485830
0.485830
0.485830
0.485830
0.485830
0.485830
0.484850
0.484850
0.484850
0.483870
0.483870
0.483870
0.482890
0.480940
0.478980
0.477030
0.475070
0.472140
0.469210
0.467250
0.464320
0.462370
0.461390
0.460410
0.459430
0.459430
0.459430
0.459430
0.459430
0.458460
0.458460
0.457480
0.456500
0.454550
0.453570
0.452590
0.452590
0.453570
0.454550
0.455520
0.457480
0.460410
0.463340
0.468230
0.475070
0.483870
0.494620
0.505380
0.517110
0.527860
0.537630
0.545450
0.551320
0.556210
0.561090
0.565000
0.568910
0.570870
0.572830
0.572830
0.571850
0.569890
0.565980
0.561090
0.555230
0.550340
0.543500
0.536660
0.528840
0.521020
0.514170
0.507330
0.501470
0.496580
0.492670
0.488760
0.485830
0.484850
0.483870
0.482890
0.482890
0.482890
0.483870
0.483870
0.483870
0.484850
0.485830
0.486800
0.486800
0.486800
0.486800
0.484850
0.483870
0.481920
0.479960
0.478010
0.476050
0.475070
0.474100
0.472140
0.471160
0.470190
0.468230
0.466280
0.464320
0.463340
0.462370
0.461390
0.460410
0.459430
0.457480
0.456500
0.455520
0.453570
0.452590
0.451610
0.450640
0.450640
0.449660
0.450640
0.451610
0.452590
0.454550
0.457480
0.463340
0.470190
0.477030
0.484850
0.493650
0.503420
0.513200
0.522970
0.532750
0.540570
0.548390
0.554250
0.559140
0.563050
0.565980
0.566960
0.566960
0.565980
0.564030
0.560120
0.555230
0.549360
0.542520
0.535680
0.527860
0.520040
0.513200
0.508310
0.503420
0.499510
0.495600
0.491690
0.488760
0.485830
0.482890
0.480940
0.480940
0.478980
0.478010
0.478010
0.477030
0.477030
0.477030
0.477030
0.477030
0.477030
0.477030
0.476050
0.475070
0.474100
0.472140
0.470190
0.468230
0.466280
0.464320
0.461390
0.459430
0.456500
0.453570
0.451610
0.449660
0.448680
0.446730
0.445750
0.443790
0.442820
0.440860
0.437930
0.435970
0.434020
0.431090
0.428150
0.425220
0.422290
0.420330
0.417400
0.414470
0.413490
0.413490
0.414470
0.415440
0.418380
0.422290
0.427170
0.434020
0.442820
0.452590
0.463340
0.474100
0.483870
0.494620
0.505380
0.514170
0.521990
0.528840
0.534700
0.539590
0.542520
0.543500
0.541540
0.538610
0.534700
0.529810
0.523950
0.518080
0.511240
0.502440
0.493650
0.484850
0.476050
0.467250
0.461390
0.455520
0.449660
0.446730
0.443790
0.441840
0.439880
0.438910
0.439880
0.440860
0.441840
0.443790
0.444770
0.446730
0.447700
0.448680
0.448680
0.448680
0.448680
0.447700
0.445750
0.444770
0.442820
0.441840
0.439880
0.438910
0.436950
0.435000
0.435000
0.434020
0.434020
0.433040
0.432060
0.430110
0.428150
0.425220
0.422290
0.418380
0.416420
0.414470
0.413490
0.413490
0.413490
0.413490
0.413490
0.413490
0.413490
0.413490
0.413490
0.413490
0.414470
0.415440
0.416420
0.418380
0.422290
0.427170
0.434020
0.443790
0.454550
0.466280
0.478980
0.491690
0.503420
0.515150
0.524930
0.534700
0.540570
0.545450
0.549360
0.553270
0.555230
0.555230
0.553270
0.551320
0.547410
0.543500
0.538610
0.533720
0.527860
0.521990
0.515150
0.508310
0.502440
0.496580
0.492670
0.488760
0.484850
0.481920
0.479960
0.478010
0.478010
0.477030
0.477030
0.477030
0.477030
0.477030
0.478010
0.478010
0.478980
0.479960
0.480940
0.482890
0.483870
0.483870
0.484850
0.484850
0.484850
0.484850
0.484850
0.483870
0.482890
0.480940
0.479960
0.478010
0.477030
0.475070
0.473120
0.472140
0.470190
0.468230
0.467250
0.465300
0.464320
0.463340
0.463340
0.462370
0.462370
0.461390
0.462370
0.462370
0.462370
0.462370
0.463340
0.466280
0.470190
0.475070
0.482890
0.491690
0.501470
0.513200
0.525900
0.537630
0.548390
0.560120
0.571850
0.582600
0.592380
0.599220
0.604110
0.607040
0.608020
0.608990
0.608020
0.606060
0.604110
0.600200
0.595310
0.587490
0.579670
0.570870
0.563050
0.555230
0.547410
0.539590
0.531770
0.525900
0.520040
0.516130
0.513200
0.511240
0.511240
0.510260
0.510260
0.510260
0.510260
0.511240
0.511240
0.511240
0.511240
0.511240
0.511240
0.511240
0.511240
0.510260
0.509290
0.508310
0.507330
0.507330
0.507330
0.506350
0.505380
0.504400
0.503420
0.501470
0.501470
0.499510
0.498530
0.496580
0.494620
0.491690
0.488760
0.485830
0.482890
0.479960
0.478010
0.476050
0.474100
0.472140
0.470190
0.469210
0.467250
0.466280
0.466280
0.466280
0.467250
0.470190
0.474100
0.479960
0.488760
0.499510
0.511240
0.524930
0.538610
0.552300
0.565980
0.578690
0.591400
0.602150
0.609970
0.614860
0.618770
0.622680
0.624630
0.624630
0.622680
0.612900
0.597260
0.586510
0.577710
0.570870
0.563050
0.556210
0.548390
0.541540
0.535680
0.530790
0.525900
0.521020
0.517110
0.513200
0.508310
0.504400
0.501470
0.499510
0.497560
0.496580
0.497560
0.497560
0.498530
0.498530
0.498530
0.498530
0.498530
0.497560
0.495600
0.494620
0.493650
0.491690
0.489740
