0.303030
0.298140
0.293260
0.288370
0.284460
0.281520
0.278590
0.274680
0.269790
0.263930
0.258060
0.256110
0.259040
0.271750
0.295210
0.329420
0.373410
0.425220
0.471160
0.514170
0.559140
0.600200
0.635390
0.663730
0.686220
0.703810
0.716520
0.725320
0.731180
0.733140
0.733140
0.730210
0.726300
0.720430
0.713590
0.704790
0.695010
0.685240
0.673510
0.660800
0.646140
0.630500
0.613880
0.597260
0.580650
0.562070
0.542520
0.523950
0.505380
0.487780
0.473120
0.460410
0.448680
0.439880
0.433040
0.428150
0.425220
0.422290
0.419350
0.417400
0.415440
0.413490
0.410560
0.407620
0.404690
0.401760
0.397850
0.393940
0.390030
0.386120
0.382210
0.376340
0.371460
0.365590
0.359730
0.353860
0.348000
0.342130
0.336270
0.330400
0.325510
0.322580
0.317690
0.312810
0.307920
0.303030
0.298140
0.294230
0.289350
0.284460
0.279570
0.273700
0.267840
0.263930
0.261000
0.261970
0.268820
0.284460
0.311830
0.348970
0.395890
0.448680
0.501470
0.551320
0.596290
0.630500
0.655910
0.679370
0.697950
0.712610
0.724340
0.732160
0.736070
0.738030
0.738030
0.735090
0.730210
0.724340
0.717500
0.709680
0.699900
0.690130
0.678400
0.665690
0.651030
0.634410
0.616810
0.598240
0.577710
0.557180
0.539590
0.522970
0.506350
0.489740
0.475070
0.463340
0.452590
0.443790
0.436950
0.432060
0.428150
0.425220
0.422290
0.420330
0.418380
0.416420
0.414470
0.411530
0.408600
0.404690
0.400780
0.396870
0.391980
0.387100
0.382210
0.378300
0.374390
0.369500
0.363640
0.358750
0.352880
0.348000
0.342130
0.337240
0.332360
0.327470
0.322580
0.317690
0.313780
0.310850
0.307920
0.304010
0.300100
0.296190
0.290320
0.284460
0.278590
0.273700
0.273700
0.280550
0.294230
0.316720
0.351910
0.397850
0.451610
0.507330
0.561090
0.608990
0.650050
0.683280
0.708700
0.727270
0.740960
0.748780
0.753670
0.755620
0.756600
0.754640
0.751710
0.745850
0.739000
0.731180
0.722390
0.711630
0.700880
0.689150
0.677420
0.663730
0.649070
0.631480
0.613880
0.594330
0.573800
0.553270
0.533720
0.514170
0.497560
0.482890
0.472140
0.460410
0.450640
0.442820
0.435970
0.431090
0.426200
0.423260
0.420330
0.417400
0.414470
0.410560
0.407620
0.404690
0.400780
0.395890
0.391010
0.385140
0.379280
0.372430
0.365590
0.358750
0.351910
0.345060
0.340180
0.335290
0.330400
0.324540
0.319650
0.313780
0.307920
0.303030
0.297170
0.291300
0.286410
0.281520
0.276640
0.272730
0.270770
0.266860
0.262950
0.257090
0.251220
0.246330
0.246330
0.252200
0.269790
0.298140
0.339200
0.382210
0.427170
0.478980
0.532750
0.582600
0.624630
0.658850
0.686220
0.705770
0.720430
0.731180
0.738030
0.740960
0.740960
0.739000
0.735090
0.730210
0.724340
0.716520
0.707720
0.698920
0.688170
0.676440
0.663730
0.649070
0.635390
0.620720
0.603130
0.584560
0.564030
0.544480
0.524930
0.506350
0.488760
0.474100
0.460410
0.449660
0.439880
0.433040
0.428150
0.424240
0.420330
0.417400
0.414470
0.412510
0.409580
0.407620
0.404690
0.401760
0.397850
0.394920
0.391980
0.388070
0.383190
0.378300
0.373410
0.367550
0.362660
0.356790
0.350930
0.345060
0.339200
0.333330
0.328450
0.324540
0.319650
0.314760
0.308900
0.304010
0.299120
0.294230
0.289350
0.285430
0.282500
0.279570
0.277610
0.273700
0.269790
0.265880
0.264910
0.271750
0.287390
0.314760
0.352880
0.399800
0.450640
0.503420
0.552300
0.591400
0.621700
0.650050
0.673510
0.692080
0.706740
0.717500
0.724340
0.729230
0.731180
0.730210
0.727270
0.722390
0.715540
0.708700
0.699900
0.690130
0.680350
0.667640
0.654940
0.640270
0.623660
0.606060
0.586510
0.566960
0.549360
0.532750
0.514170
0.497560
0.480940
0.467250
0.455520
0.445750
0.437930
0.432060
0.428150
0.424240
0.422290
0.421310
0.419350
0.417400
0.415440
0.413490
0.410560
0.407620
0.404690
0.400780
0.396870
0.391980
0.387100
0.383190
0.379280
0.374390
0.368520
0.363640
0.357770
0.351910
0.346040
0.340180
0.334310
0.328450
0.323560
0.318670
0.315740
0.310850
0.305960
0.302050
0.297170
0.292280
0.288370
0.282500
0.276640
0.270770
0.265880
0.263930
0.266860
0.276640
0.295210
0.325510
0.365590
0.413490
0.464320
0.516130
0.564030
0.606060
0.641250
0.668620
0.688170
0.701860
0.712610
0.721410
0.727270
0.730210
0.731180
0.730210
0.727270
0.722390
0.715540
0.707720
0.699900
0.690130
0.680350
0.668620
0.654940
0.640270
0.623660
0.606060
0.586510
0.566960
0.546430
0.526880
0.507330
0.492670
0.479960
0.467250
0.456500
0.447700
0.440860
0.435000
0.431090
0.428150
0.426200
0.424240
0.423260
0.421310
0.420330
0.418380
0.416420
0.413490
0.410560
0.406650
0.401760
0.396870
0.391980
0.386120
0.380250
0.374390
0.369500
0.365590
0.360700
0.354840
0.348970
0.343110
0.337240
0.332360
0.326490
0.321600
0.316720
0.311830
0.307920
0.305960
0.302050
0.299120
0.295210
0.289350
0.284460
0.278590
0.275660
0.277610
0.286410
0.305960
0.337240
0.371460
0.410560
0.457480
0.508310
0.557180
0.602150
0.639300
0.669600
0.694040
0.712610
0.726300
0.736070
0.741940
0.742910
0.743890
0.741940
0.738030
0.732160
0.725320
0.716520
0.706740
0.695990
0.685240
0.672530
0.659820
0.646140
0.632450
0.616810
0.599220
0.580650
0.561090
0.541540
0.522970
0.505380
0.490710
0.477030
0.466280
0.457480
0.451610
0.446730
0.442820
0.438910
0.435970
0.434020
0.431090
0.429130
0.426200
0.423260
0.420330
0.416420
0.413490
0.410560
0.406650
0.401760
0.395890
0.391010
0.385140
0.378300
0.372430
0.366570
0.360700
0.354840
0.349950
0.347020
0.342130
0.337240
0.332360
0.327470
0.322580
0.317690
0.312810
0.307920
0.302050
0.297170
0.291300
0.286410
0.280550
0.274680
0.268820
0.263930
0.266860
0.281520
0.310850
0.351910
0.403710
0.459430
0.516130
0.563050
0.600200
0.636360
0.665690
0.689150
0.706740
0.719450
0.728250
0.733140
0.735090
0.735090
0.732160
0.727270
0.720430
0.713590
0.704790
0.695990
0.686220
0.674490
0.662760
0.649070
0.634410
0.618770
0.600200
0.581620
0.564030
0.546430
0.527860
0.508310
0.489740
0.473120
0.457480
0.444770
0.434020
0.425220
0.419350
0.414470
0.410560
0.408600
0.406650
0.405670
0.403710
0.402740
0.400780
0.397850
0.394920
0.391980
0.388070
0.384160
0.379280
0.375370
0.372430
0.367550
0.362660
0.356790
0.350930
0.345060
0.339200
0.333330
0.327470
0.321600
0.315740
0.311830
0.307920
0.303030
0.298140
0.293260
0.288370
0.283480
0.278590
0.273700
0.266860
0.261000
0.254150
0.250240
0.250240
0.257090
0.271750
0.298140
0.335290
0.382210
0.435000
0.488760
0.539590
0.585530
0.623660
0.653960
0.675460
0.690130
0.703810
0.713590
0.720430
0.725320
0.727270
0.726300
0.723360
0.718480
0.711630
0.703810
0.695010
0.685240
0.675460
0.663730
0.651030
0.636360
0.620720
0.602150
0.583580
0.564030
0.543500
0.522970
0.504400
0.487780
0.475070
0.462370
0.450640
0.440860
0.433040
0.427170
0.422290
0.418380
0.415440
0.412510
0.410560
0.407620
0.405670
0.403710
0.401760
0.397850
0.394920
0.391010
0.386120
0.381230
0.376340
0.370480
0.365590
0.359730
0.354840
0.349950
0.345060
0.339200
0.333330
0.328450
0.322580
0.316720
0.310850
0.305960
0.301080
0.296190
0.291300
0.287390
0.285430
0.281520
0.277610
0.271750
0.266860
0.261000
0.256110
0.255130
0.261000
0.275660
0.302050
0.333330
0.369500
0.416420
0.468230
0.519060
0.565980
0.607040
0.640270
0.667640
0.688170
0.704790
0.716520
0.724340
0.729230
0.730210
0.729230
0.727270
0.723360
0.717500
0.710650
0.702830
0.693060
0.682310
0.670580
0.657870
0.645160
0.631480
0.614860
0.597260
0.577710
0.558160
0.537630
0.518080
0.499510
0.482890
0.467250
0.454550
0.443790
0.435970
0.430110
0.425220
0.421310
0.418380
0.415440
0.413490
0.411530
0.409580
0.406650
0.404690
0.401760
0.398830
0.396870
0.392960
0.389050
0.384160
0.379280
0.373410
0.368520
0.362660
0.356790
0.350930
0.345060
0.339200
0.334310
0.330400
0.325510
0.320630
0.314760
0.308900
0.304010
0.298140
0.293260
0.289350
0.284460
0.279570
0.275660
0.271750
0.266860
0.261970
0.260020
0.262950
0.275660
0.298140
0.332360
0.376340
0.426200
0.479960
0.533720
0.576740
0.610950
0.642230
0.669600
0.691100
0.708700
0.721410
0.730210
0.736070
0.739980
0.739980
0.738030
0.734120
0.728250
0.722390
0.714570
0.705770
0.695990
0.685240
0.672530
0.658850
0.643210
0.625610
0.607040
0.587490
0.568910
0.552300
0.533720
0.515150
0.498530
0.482890
0.470190
0.458460
0.449660
0.442820
0.436950
0.433040
0.431090
0.429130
0.427170
0.425220
0.423260
0.421310
0.419350
0.416420
0.413490
0.409580
0.405670
0.401760
0.397850
0.393940
0.389050
0.384160
0.378300
0.372430
0.366570
0.360700
0.354840
0.348970
0.343110
0.337240
0.332360
0.328450
0.324540
0.320630
0.315740
0.311830
0.306940
0.303030
0.298140
0.292280
0.285430
0.279570
0.274680
0.274680
0.280550
0.295210
0.320630
0.358750
0.407620
0.461390
0.517110
0.569890
0.616810
0.655910
0.687190
0.710650
0.726300
0.737050
0.744870
0.750730
0.753670
0.754640
0.753670
0.749760
0.744870
0.738030
0.730210
0.721410
0.712610
0.701860
0.691100
0.678400
0.664710
0.649070
0.631480
0.613880
0.594330
0.573800
0.554250
0.534700
0.516130
0.500490
0.487780
0.476050
0.464320
0.455520
0.447700
0.441840
0.436950
0.433040
0.429130
0.426200
0.423260
0.421310
0.418380
0.415440
0.411530
0.407620
0.402740
0.396870
0.391010
0.384160
0.378300
0.371460
0.364610
0.357770
0.351910
0.347020
0.342130
0.336270
0.330400
0.324540
0.318670
0.313780
0.307920
0.302050
0.297170
0.292280
0.288370
0.285430
0.281520
0.277610
0.272730
0.266860
0.260020
0.255130
0.252200
0.255130
0.267840
0.291300
0.326490
0.365590
0.407620
0.458460
0.511240
0.562070
0.606060
0.642230
0.670580
0.693060
0.709680
0.722390
0.731180
0.736070
0.737050
0.737050
0.735090
0.731180
0.726300
0.719450
0.711630
0.702830
0.692080
0.681330
0.668620
0.654940
0.641250
0.627570
0.610950
0.592380
0.572830
0.552300
0.531770
0.513200
0.494620
0.478980
0.464320
0.452590
0.443790
0.436950
0.431090
0.427170
0.423260
0.420330
0.417400
0.415440
0.413490
0.411530
0.408600
0.406650
0.402740
0.399800
0.396870
0.392960
0.389050
0.383190
0.378300
0.372430
0.366570
0.360700
0.354840
0.348970
0.343110
0.338220
0.334310
0.329420
0.323560
0.318670
0.312810
0.306940
0.302050
0.297170
0.292280
0.287390
0.282500
0.277610
0.273700
0.269790
0.263930
0.260020
0.259040
0.263930
0.279570
0.304990
0.342130
0.388070
0.439880
0.493650
0.538610
0.575760
0.612900
0.644180
0.670580
0.689150
0.701860
0.712610
0.720430
0.725320
0.727270
0.727270
0.724340
0.719450
0.714570
0.707720
0.698920
0.690130
0.680350
0.668620
0.656890
0.642230
0.626590
0.608990
0.591400
0.573800
0.557180
0.539590
0.521020
0.503420
0.487780
0.474100
0.461390
0.451610
0.442820
0.436950
0.431090
0.428150
0.425220
0.423260
0.421310
0.418380
0.416420
0.413490
0.410560
0.407620
0.403710
0.399800
0.394920
0.390030
0.386120
0.382210
0.377320
0.372430
0.366570
0.360700
0.354840
0.348970
0.343110
0.337240
0.331380
0.325510
0.321600
0.317690
0.313780
0.308900
0.304010
0.299120
0.295210
0.291300
0.286410
0.281520
0.275660
0.269790
0.265880
0.264910
0.268820
0.280550
0.302050
0.334310
0.376340
0.425220
0.476050
0.525900
0.571850
0.610950
0.643210
0.666670
0.682310
0.696970
0.708700
0.717500
0.723360
0.726300
0.727270
0.726300
0.722390
0.717500
0.711630
0.703810
0.695990
0.686220
0.676440
0.664710
0.651030
0.636360
0.619750
0.601170
0.582600
0.562070
0.542520
0.522970
0.506350
0.492670
0.478010
0.465300
0.454550
0.445750
0.437930
0.432060
0.428150
0.424240
0.422290
0.419350
0.417400
0.415440
0.414470
0.411530
0.409580
0.405670
0.402740
0.397850
0.393940
0.389050
0.384160
0.378300
0.373410
0.368520
0.364610
0.359730
0.353860
0.348000
0.343110
0.337240
0.332360
0.326490
0.321600
0.315740
0.310850
0.306940
0.303030
0.301080
0.297170
0.293260
0.288370
0.282500
0.276640
0.271750
0.270770
0.275660
0.289350
0.313780
0.344090
0.379280
0.425220
0.476050
0.527860
0.575760
0.616810
0.651030
0.677420
0.698920
0.714570
0.726300
0.734120
0.738030
0.739000
0.738030
0.736070
0.732160
0.727270
0.720430
0.712610
0.702830
0.693060
0.681330
0.668620
0.655910
0.642230
0.627570
0.609970
0.591400
0.571850
0.552300
0.532750
0.515150
0.498530
0.483870
0.471160
0.460410
0.452590
0.447700
0.442820
0.437930
0.435000
0.432060
0.429130
0.427170
0.424240
0.421310
0.418380
0.415440
0.412510
0.409580
0.405670
0.401760
0.396870
0.391010
0.386120
0.380250
0.374390
0.368520
0.362660
0.356790
0.351910
0.348000
0.344090
0.340180
0.335290
0.330400
0.325510
0.320630
0.315740
0.311830
0.306940
0.302050
0.297170
0.292280
0.288370
0.281520
0.275660
0.271750
0.273700
0.285430
0.309870
0.345060
0.391980
0.444770
0.499510
0.546430
0.586510
0.623660
0.655910
0.682310
0.701860
0.716520
0.727270
0.734120
0.738030
0.739000
0.737050
0.734120
0.731180
0.725320
0.717500
0.708700
0.698920
0.688170
0.676440
0.662760
0.649070
0.633430
0.615840
0.597260
0.579670
0.562070
0.542520
0.522970
0.503420
0.485830
0.469210
0.455520
0.443790
0.434020
0.427170
0.420330
0.416420
0.412510
0.410560
0.408600
0.405670
0.403710
0.400780
0.397850
0.393940
0.391010
0.386120
0.382210
0.377320
0.373410
0.369500
0.365590
0.359730
0.353860
0.348970
0.343110
0.337240
0.331380
0.325510
0.319650
0.313780
0.307920
0.304010
0.300100
0.295210
0.290320
0.285430
0.281520
0.276640
0.271750
0.265880
0.260020
0.253180
0.248290
0.245360
0.248290
0.257090
0.276640
0.306940
0.348970
0.399800
0.454550
0.508310
0.559140
0.603130
0.639300
0.668620
0.688170
0.702830
0.714570
0.724340
0.730210
0.734120
0.735090
0.734120
0.730210
0.724340
0.717500
0.708700
0.699900
0.690130
0.678400
0.666670
0.652000
0.636360
0.619750
0.601170
0.581620
0.561090
0.539590
0.520040
0.500490
0.484850
0.471160
0.458460
0.446730
0.436950
0.428150
0.422290
0.417400
0.413490
0.411530
0.408600
0.406650
0.405670
0.403710
0.401760
0.399800
0.395890
0.392960
0.388070
0.384160
0.379280
0.373410
0.368520
0.362660
0.357770
0.352880
0.348970
0.344090
0.338220
0.333330
0.327470
0.321600
0.315740
0.310850
0.304990
0.299120
0.293260
0.289350
0.286410
0.282500
0.278590
0.273700
0.267840
0.261000
0.255130
0.250240
0.251220
0.259040
0.277610
0.307920
0.342130
0.381230
0.430110
0.482890
0.534700
0.581620
0.621700
0.654940
0.681330
0.701860
0.717500
0.729230
0.736070
0.739000
0.739980
0.739000
0.737050
0.732160
0.725320
0.717500
0.708700
0.698920
0.687190
0.675460
0.661780
0.648090
0.633430
0.616810
0.599220
0.578690
0.558160
0.537630
0.518080
0.498530
0.481920
0.467250
0.454550
0.444770
0.437930
0.431090
0.426200
0.421310
0.418380
0.415440
0.413490
0.410560
0.408600
0.406650
0.403710
0.399800
0.397850
0.394920
0.391010
0.387100
0.381230
0.376340
0.370480
0.364610
0.358750
0.352880
0.346040
0.340180
0.335290
0.331380
0.325510
0.320630
0.314760
0.308900
0.303030
0.298140
0.292280
0.288370
0.283480
0.278590
0.274680
0.271750
0.265880
0.260020
0.256110
0.255130
0.261000
0.276640
0.303030
0.341150
0.388070
0.440860
0.494620
0.540570
0.578690
0.615840
0.648090
0.674490
0.695990
0.713590
0.726300
0.735090
0.740960
0.742910
0.742910
0.740960
0.736070
0.730210
0.722390
0.714570
0.704790
0.695010
0.684260
0.671550
0.656890
0.641250
0.623660
0.604110
0.585530
0.567940
0.548390
0.527860
0.509290
0.490710
0.475070
0.461390
0.450640
0.441840
0.435000
0.431090
0.428150
0.426200
0.424240
0.423260
0.422290
0.420330
0.419350
0.416420
0.414470
0.411530
0.407620
0.402740
0.398830
0.393940
0.390030
0.385140
0.380250
0.374390
0.368520
0.361680
0.355820
0.349950
0.344090
0.338220
0.333330
0.328450
0.325510
0.321600
0.316720
0.312810
0.307920
0.304010
0.299120
0.294230
0.288370
0.282500
0.276640
0.273700
0.275660
0.283480
0.302050
0.331380
0.373410
0.424240
0.479960
0.535680
0.587490
0.632450
0.669600
0.698920
0.718480
0.732160
0.742910
0.751710
0.756600
0.759530
0.759530
0.757580
0.753670
0.747800
0.740960
0.732160
0.722390
0.712610
0.701860
0.690130
0.676440
0.661780
0.645160
0.626590
0.607040
0.586510
0.565980
0.544480
0.524930
0.508310
0.493650
0.479960
0.467250
0.456500
0.447700
0.440860
0.435000
0.431090
0.428150
0.425220
0.422290
0.419350
0.417400
0.415440
0.412510
0.408600
0.403710
0.398830
0.392960
0.387100
0.381230
0.374390
0.368520
0.361680
0.356790
0.351910
0.347020
0.341150
0.336270
0.330400
0.325510
0.320630
0.314760
0.309870
0.304990
0.299120
0.294230
0.290320
0.288370
0.284460
0.279570
0.273700
0.266860
0.260020
0.255130
0.255130
0.261970
0.279570
0.308900
0.343110
0.383190
0.433040
0.486800
0.540570
0.588470
0.629520
0.662760
0.689150
0.708700
0.723360
0.733140
0.739980
0.742910
0.742910
0.741940
0.739000
0.734120
0.728250
0.720430
0.711630
0.701860
0.691100
0.679370
0.665690
0.652000
0.638320
0.621700
0.603130
0.583580
0.563050
0.541540
0.521990
0.502440
0.484850
0.470190
0.456500
0.446730
0.439880
0.434020
0.428150
0.424240
0.421310
0.418380
0.415440
0.413490
0.411530
0.408600
0.405670
0.402740
0.399800
0.397850
0.393940
0.390030
0.385140
0.380250
0.375370
0.369500
0.363640
0.357770
0.350930
0.345060
0.340180
0.336270
0.331380
0.325510
0.319650
0.313780
0.307920
0.302050
0.297170
0.291300
0.286410
0.282500
0.276640
0.272730
0.268820
0.263930
0.259040
0.257090
0.260020
0.272730
0.297170
0.332360
0.377320
0.430110
0.483870
0.530790
0.569890
0.608990
0.643210
0.671550
0.694040
0.711630
0.725320
0.734120
0.739980
0.742910
0.743890
0.740960
0.737050
0.731180
0.723360
0.714570
0.704790
0.694040
0.681330
0.668620
0.652980
0.637340
0.619750
0.600200
0.580650
0.561090
0.541540
0.521990
0.503420
0.486800
0.472140
0.459430
0.448680
0.438910
0.432060
0.426200
0.422290
0.419350
0.417400
0.415440
0.412510
0.410560
0.408600
0.405670
0.402740
0.398830
0.394920
0.391010
0.386120
0.382210
0.379280
0.374390
0.368520
0.362660
0.356790
0.350930
0.345060
0.339200
0.333330
0.327470
0.321600
0.315740
0.311830
0.307920
0.304010
0.299120
0.294230
0.290320
0.285430
0.280550
0.275660
0.269790
0.263930
0.259040
0.257090
0.261000
0.271750
0.292280
0.323560
0.365590
0.414470
0.466280
0.518080
0.565980
0.607040
0.641250
0.668620
0.688170
0.700880
0.712610
0.721410
0.727270
0.731180
0.731180
0.730210
0.726300
0.721410
0.714570
0.705770
0.696970
0.687190
0.675460
0.662760
0.649070
0.633430
0.615840
0.597260
0.577710
0.557180
0.537630
0.517110
0.498530
0.483870
0.471160
0.459430
0.448680
0.439880
0.433040
0.427170
0.423260
0.420330
0.418380
0.415440
0.413490
0.412510
0.410560
0.408600
0.405670
0.402740
0.398830
0.394920
0.390030
0.385140
0.380250
0.375370
0.369500
0.363640
0.358750
0.354840
0.349950
0.344090
0.339200
0.333330
0.327470
0.321600
0.315740
0.310850
0.305960
0.301080
0.297170
0.295210
0.291300
0.287390
0.282500
0.276640
0.270770
0.266860
0.264910
0.270770
0.285430
0.310850
0.348970
0.388070
0.430110
0.478980
0.529810
0.577710
0.618770
0.652980
0.680350
0.701860
0.717500
0.729230
0.737050
0.739980
0.740960
0.739980
0.738030
0.734120
0.728250
0.721410
0.712610
0.703810
0.693060
0.681330
0.667640
0.654940
0.641250
0.625610
0.607040
0.587490
0.566960
0.546430
0.526880
0.508310
0.490710
0.476050
0.463340
0.453570
0.446730
0.441840
0.436950
0.434020
0.431090
0.428150
0.426200
0.424240
0.422290
0.420330
0.417400
0.413490
0.411530
0.408600
0.404690
0.400780
0.395890
0.390030
0.385140
0.379280
0.373410
0.367550
0.361680
0.355820
0.349950
0.346040
0.343110
0.338220
0.333330
0.328450
0.323560
0.318670
0.313780
0.309870
0.304990
0.301080
0.295210
0.291300
0.286410
0.280550
0.275660
0.273700
0.278590
0.294230
0.321600
0.361680
0.410560
0.465300
0.520040
0.571850
0.611930
0.643210
0.670580
0.693060
0.710650
0.723360
0.732160
0.738030
0.739980
0.739980
0.737050
0.733140
0.726300
0.719450
0.710650
0.701860
0.691100
0.680350
0.668620
0.654940
0.640270
0.624630
0.607040
0.587490
0.567940
0.549360
0.532750
0.514170
0.495600
0.478980
0.463340
0.450640
0.439880
0.431090
0.424240
0.418380
0.415440
0.412510
0.410560
0.408600
0.406650
0.404690
0.401760
0.398830
0.395890
0.391980
0.387100
0.382210
0.377320
0.371460
0.367550
0.362660
0.357770
0.351910
0.347020
0.341150
0.335290
0.329420
0.323560
0.318670
0.312810
0.307920
0.303030
0.300100
0.295210
0.291300
0.286410
0.281520
0.277610
0.272730
0.266860
0.261000
0.254150
0.249270
0.247310
0.250240
0.261000
0.280550
0.312810
0.354840
0.405670
0.460410
0.514170
0.564030
0.607040
0.643210
0.671550
0.691100
0.703810
0.715540
0.724340
0.729230
0.732160
0.733140
0.731180
0.727270
0.721410
0.714570
0.705770
0.695990
0.686220
0.675460
0.663730
0.650050
0.634410
0.616810
0.598240
0.578690
0.558160
0.537630
0.517110
0.498530
0.482890
0.470190
0.457480
0.446730
0.436950
0.429130
0.423260
0.418380
0.415440
0.412510
0.409580
0.407620
0.405670
0.403710
0.402740
0.400780
0.397850
0.393940
0.391010
0.386120
0.382210
0.376340
0.371460
0.365590
0.359730
0.354840
0.349950
0.345060
0.339200
0.333330
0.327470
0.321600
0.315740
0.309870
0.304990
0.299120
0.293260
0.290320
0.287390
0.283480
0.278590
0.273700
0.267840
0.261970
0.256110
0.252200
0.254150
0.262950
0.283480
0.314760
0.350930
0.390030
0.438910
0.491690
0.541540
0.587490
0.626590
0.657870
0.683280
0.701860
0.716520
0.727270
0.732160
0.734120
0.735090
0.734120
0.731180
0.726300
0.720430
0.712610
0.703810
0.694040
0.682310
0.669600
0.654940
0.641250
0.626590
0.608990
0.590420
0.569890
0.549360
0.529810
0.510260
0.492670
0.477030
0.463340
0.451610
0.443790
0.436950
0.431090
0.426200
0.422290
0.418380
0.416420
0.413490
0.411530
0.408600
0.406650
0.403710
0.399800
0.396870
0.393940
0.391010
0.386120
0.381230
0.376340
0.370480
0.364610
0.358750
0.351910
0.346040
0.340180
0.335290
0.331380
0.326490
0.320630
0.314760
0.308900
0.304010
0.298140
0.293260
0.288370
0.283480
0.278590
0.273700
0.269790
0.265880
0.261000
0.257090
0.256110
0.262950
0.278590
0.304990
0.343110
0.390030
0.441840
0.495600
0.540570
0.577710
0.614860
0.646140
0.672530
0.694040
0.709680
0.722390
0.731180
0.736070
0.739000
0.739000
0.736070
0.731180
0.725320
0.717500
0.708700
0.698920
0.687190
0.675460
0.660800
0.646140
0.629520
0.610950
0.591400
0.572830
0.555230
0.536660
0.517110
0.497560
0.480940
0.465300
0.452590
0.442820
0.434020
0.428150
0.423260
0.420330
0.420330
0.421310
0.421310
0.420330
0.419350
0.417400
0.415440
0.413490
0.410560
0.406650
0.402740
0.398830
0.394920
0.391010
0.386120
0.381230
0.375370
0.369500
0.362660
0.356790
0.350930
0.345060
0.339200
0.334310
0.329420
0.325510
0.321600
0.317690
0.313780
0.309870
0.304990
0.301080
0.296190
0.290320
0.284460
0.278590
0.275660
0.276640
0.283480
0.300100
0.327470
0.367550
0.417400
0.473120
0.528840
0.581620
0.628540
0.667640
0.697950
0.721410
0.737050
0.746820
0.755620
0.760510
0.763440
0.764420
0.762460
0.757580
0.751710
0.743890
0.735090
0.724340
0.714570
0.703810
0.692080
0.678400
0.663730
0.648090
0.630500
0.611930
0.592380
0.571850
0.551320
0.531770
0.513200
0.498530
0.485830
0.474100
0.463340
0.453570
0.446730
0.439880
0.435000
0.431090
0.427170
0.424240
0.420330
0.418380
0.415440
0.412510
0.408600
0.403710
0.398830
0.393940
0.388070
0.382210
0.375370
0.368520
0.361680
0.355820
0.350930
0.346040
0.339200
0.333330
0.327470
0.321600
0.315740
0.309870
0.304010
0.298140
0.292280
0.286410
0.282500
0.279570
0.275660
0.270770
0.265880
0.259040
0.252200
0.246330
0.243400
0.246330
0.258060
0.282500
0.312810
0.349950
0.398830
0.455520
0.512220
0.565980
0.612900
0.651030
0.681330
0.704790
0.721410
0.733140
0.740960
0.743890
0.744870
0.743890
0.740960
0.736070
0.730210
0.722390
0.713590
0.703810
0.693060
0.681330
0.668620
0.655910
0.642230
0.626590
0.608990
0.590420
0.571850
0.551320
0.531770
0.513200
0.495600
0.479960
0.467250
0.455520
0.447700
0.441840
0.436950
0.432060
0.429130
0.426200
0.424240
0.422290
0.420330
0.418380
0.415440
0.413490
0.410560
0.407620
0.404690
0.400780
0.395890
0.391010
0.385140
0.379280
0.374390
0.368520
0.361680
0.355820
0.349950
0.345060
0.341150
0.336270
0.330400
0.324540
0.318670
0.313780
0.307920
0.303030
0.299120
0.294230
0.289350
0.285430
0.281520
0.275660
0.269790
0.265880
0.266860
0.276640
0.296190
0.326490
0.368520
0.417400
0.471160
0.522970
0.566960
0.602150
0.635390
0.664710
0.689150
0.708700
0.723360
0.734120
0.740960
0.745850
0.746820
0.745850
0.741940
0.737050
0.730210
0.722390
0.713590
0.703810
0.692080
0.679370
0.665690
0.650050
0.632450
0.614860
0.595310
0.576740
0.560120
0.541540
0.523950
0.506350
0.490710
0.478010
0.466280
0.457480
0.449660
0.443790
0.438910
0.435970
0.434020
0.432060
0.430110
0.428150
0.426200
0.423260
0.421310
0.418380
0.415440
0.411530
0.406650
0.401760
0.397850
0.393940
0.389050
0.383190
0.377320
0.371460
0.365590
0.359730
0.353860
0.348000
0.342130
0.336270
0.332360
0.328450
0.323560
0.319650
0.314760
0.309870
0.305960
0.301080
0.297170
0.291300
0.286410
0.280550
0.277610
0.277610
0.282500
0.296190
0.318670
0.350930
0.391980
0.438910
0.487780
0.534700
0.577710
0.613880
0.644180
0.665690
0.681330
0.695010
0.706740
0.715540
0.721410
0.724340
0.724340
0.722390
0.718480
0.712610
0.705770
0.696970
0.688170
0.678400
0.667640
0.655910
0.642230
0.626590
0.609970
0.592380
0.573800
0.555230
0.535680
0.517110
0.502440
0.489740
0.477030
0.465300
0.455520
0.446730
0.439880
0.435000
0.431090
0.427170
0.424240
0.422290
0.420330
0.418380
0.416420
0.413490
0.410560
0.406650
0.402740
0.398830
0.393940
0.389050
0.384160
0.379280
0.374390
0.370480
0.366570
0.361680
0.356790
0.350930
0.346040
0.340180
0.335290
0.329420
0.324540
0.319650
0.314760
0.310850
0.308900
0.304990
0.302050
0.298140
0.293260
0.288370
0.283480
0.278590
0.277610
0.282500
0.296190
0.319650
0.348000
0.381230
0.424240
0.473120
0.521990
0.567940
0.608990
0.642230
0.669600
0.690130
0.706740
0.718480
0.725320
0.728250
0.730210
0.730210
0.728250
0.724340
0.719450
0.712610
0.704790
0.695990
0.686220
0.674490
0.662760
0.651030
0.638320
0.623660
0.607040
0.588470
0.569890
0.550340
0.531770
0.514170
0.497560
0.483870
0.472140
0.462370
0.456500
0.450640
0.445750
0.441840
0.438910
0.436950
0.434020
0.432060
0.430110
0.427170
0.425220
0.421310
0.419350
0.416420
0.412510
0.408600
0.403710
0.398830
0.392960
0.387100
0.381230
0.375370
0.369500
0.364610
0.360700
0.356790
0.352880
0.348000
0.344090
0.339200
0.335290
0.330400
0.326490
0.322580
0.318670
0.313780
0.309870
0.305960
0.302050
0.297170
0.292280
0.289350
0.291300
0.302050
0.324540
0.356790
0.399800
0.449660
0.502440
0.547410
0.584560
0.621700
0.652980
0.678400
0.697950
0.712610
0.723360
0.729230
0.733140
0.734120
0.732160
0.728250
0.722390
0.715540
0.707720
0.698920
0.689150
0.678400
0.666670
0.653960
0.640270
0.625610
0.609970
0.592380
0.575760
0.560120
0.542520
0.523950
0.506350
0.489740
0.472140
0.457480
0.448680
0.440860
0.434020
0.428150
0.423260
0.420330
0.418380
0.416420
0.414470
0.412510
0.409580
0.406650
0.403710
0.400780
0.396870
0.392960
0.389050
0.385140
0.377320
0.366570
0.358750
0.351910
0.345060
0.339200
0.333330
0.327470
0.322580
0.316720
0.311830
0.305960
0.302050
0.299120
0.295210
0.291300
0.286410
0.281520
0.277610
0.272730
0.267840
0.262950
0.256110
0.250240
0.247310
0.247310
0.252200
0.265880
0.290320
0.326490
0.372430
0.424240
0.478980
0.531770
0.578690
0.618770
0.648090
0.669600
0.688170
0.703810
0.715540
0.724340
0.730210
0.733140
0.733140
0.730210
0.725320
0.718480
0.710650
0.700880
0.692080
0.680350
0.668620
0.654940
0.640270
0.623660
0.605080
0.586510
0.565980
0.545450
0.523950
0.506350
0.490710
0.475070
0.460410
0.448680
0.437930
0.430110
0.423260
0.418380
0.414470
0.411530
0.409580
0.407620
0.405670
0.404690
0.402740
0.399800
0.396870
0.392960
0.389050
0.385140
0.380250
0.375370
0.369500
0.363640
0.359730
0.354840
0.349950
0.344090
0.338220
0.332360
0.326490
0.320630
0.315740
0.309870
0.304010
0.298140
0.293260
0.289350
0.286410
0.282500
0.277610
0.273700
0.267840
0.261970
0.256110
0.250240
0.252200
0.257090
0.266860
0.284460
0.309870
0.348970
0.395890
0.448680
0.502440
0.552300
0.596290
0.633430
0.662760
0.686220
0.703810
0.717500
0.725320
0.730210
0.733140
0.734120
0.732160
0.729230
0.724340
0.717500
0.708700
0.698920
0.688170
0.676440
0.663730
0.651030
0.636360
0.619750
0.601170
0.581620
0.561090
0.540570
0.521020
0.501470
0.484850
0.469210
0.456500
0.446730
0.438910
0.432060
0.427170
0.422290
0.418380
0.415440
0.413490
0.410560
0.408600
0.405670
0.402740
0.400780
0.398830
0.394920
0.391980
0.387100
0.382210
0.377320
0.371460
0.365590
0.359730
0.353860
0.348000
0.342130
0.337240
0.333330
0.327470
0.322580
0.316720
0.310850
0.304990
0.300100
0.294230
0.289350
0.284460
0.280550
0.276640
0.273700
0.269790
0.263930
0.258060
0.254150
0.254150
0.262950
0.281520
0.311830
0.351910
0.401760
0.454550
0.501470
0.542520
0.583580
0.620720
0.652000
0.676440
0.695990
0.710650
0.721410
0.729230
0.733140
0.735090
0.734120
0.730210
0.725320
0.719450
0.712610
0.703810
0.694040
0.683280
0.670580
0.656890
0.642230
0.624630
0.607040
0.589440
0.571850
0.553270
0.533720
0.514170
0.495600
0.478980
0.465300
0.452590
0.442820
0.435000
0.428150
0.423260
0.420330
0.417400
0.415440
0.413490
0.410560
0.408600
0.406650
0.403710
0.399800
0.396870
0.392960
0.389050
0.385140
0.382210
0.378300
0.373410
0.368520
0.363640
0.357770
0.354840
0.352880
0.348970
0.344090
0.339200
0.336270
0.332360
0.328450
0.324540
0.319650
0.315740
0.310850
0.306940
0.303030
0.298140
0.292280
0.285430
0.280550
0.278590
0.280550
0.290320
0.310850
0.343110
0.386120
0.437930
0.493650
0.549360
0.600200
0.643210
0.678400
0.703810
0.720430
0.736070
0.746820
0.755620
0.759530
0.761490
0.760510
0.757580
0.751710
0.744870
0.736070
0.727270
0.717500
0.707720
0.695990
0.683280
0.669600
0.654940
0.638320
0.620720
0.601170
0.580650
0.559140
0.538610
0.521020
0.506350
0.490710
0.476050
0.464320
0.453570
0.444770
0.437930
0.433040
0.429130
0.426200
0.423260
0.421310
0.419350
0.416420
0.413490
0.410560
0.406650
0.401760
0.396870
0.391010
0.384160
0.377320
0.370480
0.363640
0.358750
0.353860
0.348000
0.341150
0.335290
0.329420
0.322580
0.316720
0.311830
0.305960
0.300100
0.294230
0.290320
0.287390
0.283480
0.278590
0.274680
0.269790
0.263930
0.258060
0.252200
0.248290
0.249270
0.257090
0.276640
0.303030
0.336270
0.383190
0.451610
0.516130
0.560120
0.604110
0.642230
0.674490
0.698920
0.717500
0.731180
0.739000
0.743890
0.746820
0.747800
0.746820
0.742910
0.738030
0.731180
0.722390
0.713590
0.702830
0.691100
0.679370
0.666670
0.652980
0.638320
0.620720
0.602150
0.581620
0.560120
0.539590
0.519060
0.500490
0.482890
0.468230
0.456500
0.447700
0.440860
0.435000
0.430110
0.427170
0.425220
0.423260
0.421310
0.419350
0.417400
0.414470
0.411530
0.409580
0.406650
0.402740
0.398830
0.393940
0.388070
0.382210
0.376340
0.370480
0.364610
0.357770
0.351910
0.347020
0.342130
0.337240
0.331380
0.325510
0.319650
0.313780
0.307920
0.303030
0.298140
0.293260
0.289350
0.284460
0.281520
0.278590
0.273700
0.267840
0.261970
0.258060
0.260020
0.270770
0.292280
0.325510
0.369500
0.421310
0.469210
0.513200
0.560120
0.603130
0.640270
0.670580
0.694040
0.712610
0.725320
0.735090
0.740960
0.743890
0.743890
0.741940
0.737050
0.732160
0.725320
0.717500
0.707720
0.697950
0.686220
0.673510
0.659820
0.644180
0.626590
0.609970
0.593350
0.573800
0.554250
0.533720
0.514170
0.496580
0.480940
0.467250
0.455520
0.446730
0.438910
0.433040
0.429130
0.426200
0.424240
0.422290
0.420330
0.417400
0.414470
0.411530
0.409580
0.405670
0.402740
0.397850
0.394920
0.391010
0.387100
0.381230
0.376340
0.370480
0.364610
0.358750
0.352880
0.347020
0.341150
0.335290
0.330400
0.327470
0.323560
0.319650
0.314760
0.309870
0.304990
0.301080
0.296190
0.292280
0.287390
0.281520
0.275660
0.270770
0.268820
0.268820
0.274680
0.290320
0.316720
0.352880
0.398830
0.448680
0.500490
0.549360
0.592380
0.624630
0.649070
0.671550
0.690130
0.704790
0.716520
0.724340
0.729230
0.732160
0.732160
0.730210
0.725320
0.719450
0.711630
0.703810
0.694040
0.683280
0.671550
0.658850
0.644180
0.627570
0.609970
0.591400
0.571850
0.551320
0.533720
0.518080
0.501470
0.486800
0.472140
0.460410
0.450640
0.442820
0.436950
0.432060
0.428150
0.426200
0.423260
0.422290
0.421310
0.419350
0.417400
0.414470
0.411530
0.408600
0.404690
0.399800
0.394920
0.390030
0.385140
0.380250
0.376340
0.370480
0.365590
0.359730
0.353860
0.347020
0.341150
0.335290
0.330400
0.324540
0.318670
0.313780
0.309870
0.306940
0.303030
0.298140
0.294230
0.290320
0.285430
0.279570
0.273700
0.269790
0.269790
0.276640
0.289350
0.309870
0.343110
0.386120
0.435970
0.489740
0.540570
0.587490
0.627570
0.659820
0.688170
0.709680
0.722390
0.730210
0.735090
0.738030
0.739980
0.739980
0.738030
0.733140
0.727270
0.720430
0.711630
0.701860
0.691100
0.680350
0.669600
0.655910
0.641250
0.625610
0.608020
0.589440
0.569890
0.550340
0.531770
0.513200
0.497560
0.483870
0.473120
0.464320
0.456500
0.449660
0.444770
0.440860
0.437930
0.435000
0.432060
0.430110
0.428150
0.425220
0.423260
0.420330
0.417400
0.413490
0.408600
0.403710
0.398830
0.392960
0.387100
0.380250
0.374390
0.368520
0.361680
0.357770
0.352880
0.348970
0.343110
0.338220
0.333330
0.328450
0.323560
0.318670
0.313780
0.308900
0.304010
0.301080
0.299120
0.294230
0.288370
0.281520
0.275660
0.273700
0.277610
0.291300
0.316720
0.354840
0.402740
0.457480
0.506350
0.549360
0.594330
0.633430
0.666670
0.692080
0.711630
0.725320
0.735090
0.740960
0.742910
0.742910
0.740960
0.736070
0.730210
0.722390
0.714570
0.704790
0.695010
0.684260
0.672530
0.659820
0.646140
0.631480
0.616810
0.601170
0.583580
0.565000
0.544480
0.524930
0.506350
0.488760
0.473120
0.459430
0.447700
0.437930
0.431090
0.426200
0.422290
0.419350
0.417400
0.414470
0.412510
0.410560
0.407620
0.404690
0.401760
0.397850
0.392960
0.390030
0.385140
0.379280
0.375370
0.370480
0.365590
0.359730
0.353860
0.348970
0.343110
0.337240
0.332360
0.326490
0.322580
0.319650
0.314760
0.309870
0.304990
0.300100
0.295210
0.290320
0.282500
0.272730
0.263930
0.257090
0.251220
0.247310
0.243400
0.243400
0.250240
0.265880
0.294230
0.334310
0.384160
0.438910
0.494620
0.547410
0.593350
0.628540
0.653960
0.677420
0.695990
0.710650
0.721410
0.729230
0.733140
0.735090
0.734120
0.731180
0.726300
0.719450
0.711630
0.702830
0.693060
0.682310
0.669600
0.652000
0.635390
0.621700
0.606060
0.581620
0.559140
0.539590
0.521990
0.504400
0.486800
0.471160
0.453570
0.440860
0.431090
0.423260
0.417400
0.412510
0.409580
0.407620
0.405670
0.403710
0.401760
0.399800
0.397850
0.394920
0.391010
0.388070
0.383190
0.377320
0.371460
0.365590
0.360700
0.356790
0.351910
0.346040
0.340180
0.334310
0.328450
0.322580
0.316720
0.310850
0.304990
0.300100
0.296190
0.292280
0.288370
0.283480
0.279570
0.274680
0.269790
0.264910
0.258060
0.252200
0.246330
0.245360
0.249270
0.260020
0.279570
0.310850
0.352880
0.403710
0.457480
0.512220
0.562070
0.605080
0.640270
0.669600
0.691100
0.705770
0.715540
0.723360
0.729230
0.732160
0.733140
0.732160
0.728250
0.723360
0.716520
0.707720
0.697950
0.688170
0.677420
0.665690
0.652000
0.637340
0.619750
0.601170
0.581620
0.561090
0.540570
0.520040
0.500490
0.482890
0.469210
0.457480
0.447700
0.437930
0.430110
0.424240
0.419350
0.416420
0.413490
0.410560
0.407620
0.405670
0.402740
0.400780
0.398830
0.395890
0.391980
0.388070
0.384160
0.379280
0.373410
0.368520
0.362660
0.356790
0.350930
0.346040
0.341150
0.336270
0.330400
0.323560
0.317690
0.311830
0.304990
0.299120
0.294230
0.288370
0.283480
0.278590
0.275660
0.272730
0.268820
0.262950
0.257090
0.251220
0.247310
0.247310
0.256110
0.275660
0.306940
0.348970
0.391980
0.435970
0.485830
0.535680
0.581620
0.621700
0.653960
0.680350
0.699900
0.715540
0.726300
0.734120
0.737050
0.737050
0.736070
0.733140
0.729230
0.722390
0.714570
0.705770
0.695010
0.684260
0.671550
0.657870
0.642230
0.627570
0.611930
0.594330
0.574780
0.554250
0.533720
0.514170
0.495600
0.478980
0.464320
0.451610
0.441840
0.434020
0.428150
0.424240
0.420330
0.417400
0.414470
0.412510
0.411530
0.409580
0.406650
0.404690
0.401760
0.397850
0.394920
0.391980
0.388070
0.383190
0.378300
0.372430
0.366570
0.360700
0.354840
0.348970
0.343110
0.337240
0.332360
0.329420
0.324540
0.319650
0.314760
0.309870
0.304990
0.300100
0.296190
0.292280
0.287390
0.282500
0.276640
0.271750
0.267840
0.266860
0.271750
0.281520
0.301080
0.332360
0.375370
0.427170
0.482890
0.538610
0.589440
0.629520
0.660800
0.688170
0.710650
0.729230
0.741940
0.751710
0.757580
0.760510
0.761490
0.758550
0.754640
0.747800
0.739980
0.732160
0.722390
0.711630
0.699900
0.687190
0.673510
0.658850
0.642230
0.624630
0.605080
0.585530
0.566960
0.550340
0.531770
0.513200
0.496580
0.481920
0.469210
0.458460
0.449660
0.442820
0.437930
0.434020
0.430110
0.428150
0.426200
0.424240
0.421310
0.418380
0.414470
0.410560
0.406650
0.400780
0.395890
0.390030
0.383190
0.377320
0.372430
0.366570
0.359730
0.352880
0.346040
0.339200
0.332360
0.326490
0.320630
0.314760
0.308900
0.303030
0.299120
0.295210
0.291300
0.286410
0.281520
0.276640
0.271750
0.265880
0.260020
0.253180
0.248290
0.247310
0.251220
0.261970
0.284460
0.319650
0.365590
0.419350
0.476050
0.531770
0.581620
0.624630
0.659820
0.687190
0.707720
0.720430
0.729230
0.736070
0.739980
0.741940
0.741940
0.739000
0.734120
0.728250
0.720430
0.711630
0.701860
0.691100
0.680350
0.668620
0.654940
0.639300
0.622680
0.604110
0.584560
0.565000
0.544480
0.524930
0.506350
0.488760
0.475070
0.464320
0.453570
0.444770
0.437930
0.432060
0.427170
0.423260
0.420330
0.417400
0.414470
0.411530
0.409580
0.407620
0.404690
0.401760
0.397850
0.393940
0.389050
0.384160
0.379280
0.373410
0.367550
0.361680
0.357770
0.353860
0.348970
0.343110
0.337240
0.331380
0.325510
0.319650
0.314760
0.308900
0.304010
0.298140
0.294230
0.290320
0.288370
0.284460
0.280550
0.274680
0.268820
0.262950
0.258060
0.258060
0.265880
0.283480
0.313780
0.347020
0.386120
0.434020
0.486800
0.538610
0.584560
0.624630
0.656890
0.683280
0.702830
0.717500
0.729230
0.736070
0.739980
0.739980
0.739000
0.736070
0.731180
0.725320
0.717500
0.709680
0.699900
0.688170
0.675460
0.661780
0.648090
0.634410
0.616810
0.598240
0.578690
0.557180
0.536660
0.517110
0.497560
0.480940
0.466280
0.453570
0.443790
0.436950
0.431090
0.427170
0.423260
0.420330
0.418380
0.416420
0.414470
0.412510
0.410560
0.407620
0.404690
0.402740
0.399800
0.395890
0.391980
0.387100
0.382210
0.376340
0.370480
0.364610
0.358750
0.352880
0.347020
0.341150
0.336270
0.332360
0.327470
0.322580
0.317690
0.311830
0.306940
0.302050
0.297170
0.292280
0.288370
0.283480
0.279570
0.275660
0.269790
0.264910
0.262950
0.266860
0.279570
0.304010
0.339200
0.383190
0.433040
0.484850
0.534700
0.574780
0.607040
0.637340
0.662760
0.684260
0.699900
0.712610
0.721410
0.727270
0.729230
0.729230
0.727270
0.723360
0.717500
0.710650
0.702830
0.693060
0.683280
0.672530
0.659820
0.646140
0.631480
0.614860
0.597260
0.577710
0.561090
0.544480
0.526880
0.509290
0.493650
0.478980
0.466280
0.456500
0.447700
0.440860
0.435000
0.431090
0.428150
0.426200
0.424240
0.421310
0.419350
0.417400
0.414470
0.410560
0.407620
0.403710
0.399800
0.394920
0.391010
0.387100
0.383190
0.378300
0.373410
0.367550
0.362660
0.356790
0.350930
0.346040
0.340180
0.335290
0.329420
0.325510
0.322580
0.318670
0.314760
0.309870
0.305960
0.302050
0.298140
0.293260
0.288370
0.282500
0.278590
0.276640
0.279570
0.289350
0.307920
0.337240
0.377320
0.425220
0.476050
0.526880
0.573800
0.614860
0.649070
0.676440
0.695010
0.707720
0.719450
0.727270
0.733140
0.736070
0.736070
0.734120
0.730210
0.725320
0.717500
0.709680
0.700880
0.691100
0.681330
0.669600
0.656890
0.642230
0.626590
0.609970
0.591400
0.572830
0.553270
0.534700
0.518080
0.503420
0.491690
0.479960
0.470190
0.461390
0.454550
0.448680
0.443790
0.440860
0.437930
0.435000
0.433040
0.431090
0.429130
0.426200
0.423260
0.420330
0.416420
0.411530
0.407620
0.401760
0.396870
0.391010
0.386120
0.380250
0.375370
0.371460
0.366570
0.360700
0.355820
0.350930
0.346040
0.342130
0.337240
0.332360
0.327470
0.323560
0.319650
0.317690
0.313780
0.309870
0.304990
0.299120
0.293260
0.286410
0.283480
0.286410
0.298140
0.320630
0.354840
0.392960
0.433040
0.481920
0.532750
0.580650
0.621700
0.655910
0.682310
0.701860
0.716520
0.726300
0.733140
0.736070
0.735090
0.734120
0.730210
0.725320
0.718480
0.710650
0.701860
0.692080
0.681330
0.669600
0.657870
0.644180
0.630500
0.616810
0.600200
0.582600
0.564030
0.544480
0.524930
0.506350
0.488760
0.473120
0.459430
0.448680
0.439880
0.434020
0.428150
0.424240
0.420330
0.417400
0.415440
0.413490
0.410560
0.408600
0.405670
0.402740
0.398830
0.395890
0.392960
0.389050
0.385140
0.379280
0.374390
0.368520
0.362660
0.357770
0.351910
0.346040
0.341150
0.336270
0.333330
0.328450
0.324540
0.319650
0.314760
0.309870
0.304990
0.300100
0.295210
0.291300
0.287390
0.282500
0.278590
0.275660
0.270770
0.265880
0.264910
0.268820
0.282500
0.306940
0.342130
0.386120
0.435970
0.487780
0.531770
0.568910
0.605080
0.637340
0.666670
0.688170
0.704790
0.717500
0.726300
0.731180
0.734120
0.734120
0.732160
0.727270
0.721410
0.713590
0.705770
0.695990
0.685240
0.673510
0.660800
0.646140
0.630500
0.612900
0.594330
0.575760
0.559140
0.539590
0.520040
0.501470
0.483870
0.468230
0.455520
0.444770
0.436950
0.430110
0.425220
0.422290
0.419350
0.418380
0.416420
0.414470
0.412510
0.410560
0.407620
0.403710
0.400780
0.396870
0.391980
0.387100
0.383190
0.379280
0.374390
0.369500
0.362660
0.356790
0.350930
0.344090
0.338220
0.332360
0.326490
0.320630
0.314760
0.310850
0.307920
0.303030
0.299120
0.294230
0.290320
0.285430
0.280550
0.275660
0.269790
0.262950
0.258060
0.255130
0.258060
0.267840
0.286410
0.315740
0.356790
0.404690
0.457480
0.510260
0.559140
0.602150
0.638320
0.667640
0.687190
0.701860
0.713590
0.723360
0.730210
0.734120
0.735090
0.734120
0.731180
0.725320
0.718480
0.709680
0.700880
0.691100
0.680350
0.667640
0.653960
0.638320
0.621700
0.603130
0.583580
0.563050
0.542520
0.522970
0.506350
0.491690
0.478010
0.464320
0.453570
0.443790
0.436950
0.431090
0.426200
0.423260
0.420330
0.418380
0.416420
0.414470
0.413490
0.411530
0.408600
0.405670
0.401760
0.397850
0.392960
0.388070
0.383190
0.377320
0.371460
0.366570
0.362660
0.356790
0.350930
0.345060
0.339200
0.333330
0.326490
0.320630
0.314760
0.309870
0.304010
0.299120
0.295210
0.292280
0.289350
0.284460
0.279570
0.274680
0.267840
0.262950
0.259040
0.261000
0.270770
0.291300
0.317690
0.349950
0.393940
0.444770
0.496580
0.547410
0.591400
0.629520
0.660800
0.685240
0.703810
0.718480
0.729230
0.735090
0.738030
0.738030
0.736070
0.730210
0.724340
0.716520
0.707720
0.697950
0.687190
0.674490
0.661780
0.649070
0.633430
0.616810
0.598240
0.577710
0.558160
0.538610
0.519060
0.501470
0.485830
0.472140
0.460410
0.451610
0.444770
0.438910
0.434020
0.430110
0.427170
0.424240
0.421310
0.419350
0.416420
0.414470
0.411530
0.408600
0.406650
0.403710
0.399800
0.395890
0.391010
0.386120
0.380250
0.374390
0.369500
0.363640
0.357770
0.351910
0.347020
0.344090
0.339200
0.332360
0.327470
0.322580
0.314760
0.310850
0.305960
0.302050
0.297170
0.293260
0.289350
0.284460
0.278590
0.275660
0.277610
0.288370
0.309870
0.344090
0.390030
0.442820
0.498530
0.552300
0.595310
0.630500
0.676440
0.701860
0.720430
0.740960
0.749760
0.754640
0.753670
0.746820
0.741940
0.735090
0.724340
0.716520
0.706740
0.696970
0.685240
0.673510
0.659820
0.644180
0.627570
0.608990
0.590420
0.571850
0.555230
0.536660
0.517110
0.499510
0.483870
0.469210
0.457480
0.446730
0.438910
0.432060
0.426200
0.422290
0.420330
0.417400
0.414470
0.411530
0.408600
0.404690
0.400780
0.396870
0.391980
0.387100
0.381230
0.375370
0.370480
0.365590
0.359730
0.353860
0.347020
0.340180
0.334310
0.328450
0.322580
0.316720
0.310850
0.304990
0.301080
0.298140
0.293260
0.288370
0.283480
0.278590
0.274680
0.269790
0.264910
0.259040
0.252200
0.247310
0.244380
0.245360
0.253180
0.270770
0.300100
0.341150
0.391010
0.446730
0.502440
0.554250
0.600200
0.637340
0.667640
0.688170
0.701860
0.713590
0.722390
0.728250
0.732160
0.733140
0.731180
0.727270
0.722390
0.714570
0.706740
0.697950
0.688170
0.677420
0.665690
0.652000
0.637340
0.621700
0.604110
0.584560
0.564030
0.543500
0.522970
0.503420
0.486800
0.473120
0.460410
0.448680
0.438910
0.431090
0.424240
0.420330
0.416420
0.413490
0.411530
0.408600
0.407620
0.405670
0.403710
0.400780
0.397850
0.394920
0.391010
0.386120
0.382210
0.376340
0.371460
0.365590
0.359730
0.354840
0.350930
0.346040
0.340180
0.335290
0.329420
0.323560
0.318670
0.312810
0.307920
0.302050
0.297170
0.293260
0.290320
0.286410
0.282500
0.277610
0.272730
0.265880
0.260020
0.255130
0.255130
0.261970
0.278590
0.305960
0.338220
0.375370
0.423260
0.474100
0.524930
0.571850
0.611930
0.645160
0.671550
0.692080
0.707720
0.719450
0.726300
0.729230
0.731180
0.731180
0.728250
0.724340
0.718480
0.711630
0.702830
0.693060
0.681330
0.669600
0.655910
0.642230
0.628540
0.611930
0.593350
0.573800
0.553270
0.532750
0.513200
0.494620
0.477030
0.462370
0.449660
0.440860
0.433040
0.427170
0.422290
0.418380
0.415440
0.413490
0.411530
0.409580
0.407620
0.405670
0.402740
0.399800
0.397850
0.394920
0.391980
0.388070
0.383190
0.379280
0.373410
0.368520
0.362660
0.356790
0.350930
0.345060
0.340180
0.336270
0.330400
0.324540
0.318670
0.312810
0.305960
0.300100
0.295210
0.290320
0.284460
0.279570
0.274680
0.269790
0.265880
0.261000
0.256110
0.255130
0.261000
0.275660
0.301080
0.338220
0.384160
0.435000
0.488760
0.532750
0.570870
0.608020
0.640270
0.666670
0.689150
0.705770
0.718480
0.727270
0.733140
0.736070
0.736070
0.733140
0.729230
0.723360
0.715540
0.707720
0.698920
0.689150
0.677420
0.664710
0.651030
0.635390
0.617790
0.599220
0.582600
0.565980
0.548390
0.529810
0.512220
0.496580
0.481920
0.470190
0.460410
0.451610
0.445750
0.440860
0.436950
0.434020
0.432060
0.430110
0.428150
0.426200
0.423260
0.420330
0.417400
0.414470
0.410560
0.406650
0.401760
0.397850
0.393940
0.390030
0.384160
0.379280
0.373410
0.367550
0.361680
0.355820
0.349950
0.344090
0.338220
0.334310
0.330400
0.325510
0.320630
0.314760
0.309870
0.304010
0.298140
0.292280
0.285430
0.277610
0.269790
0.264910
0.263930
0.268820
0.282500
0.306940
0.343110
0.388070
0.438910
0.491690
0.541540
0.587490
0.625610
0.656890
0.678400
0.694040
0.707720
0.719450
0.727270
0.732160
0.735090
0.735090
0.733140
0.728250
0.722390
0.715540
0.706740
0.697950
0.688170
0.676440
0.663730
0.649070
0.633430
0.616810
0.598240
0.578690
0.558160
0.538610
0.520040
0.504400
0.490710
0.478010
0.466280
0.456500
0.448680
0.442820
0.437930
0.434020
0.431090
0.429130
0.426200
0.424240
0.422290
0.420330
0.418380
0.415440
0.411530
0.407620
0.403710
0.398830
0.393940
0.388070
0.383190
0.377320
0.372430
0.368520
0.363640
0.358750
0.353860
0.348970
0.344090
0.339200
0.334310
0.329420
0.324540
0.320630
0.315740
0.312810
0.309870
0.305960
0.301080
0.295210
0.287390
0.281520
0.277610
0.280550
0.292280
0.315740
0.350930
0.389050
0.430110
0.479960
0.531770
0.579670
0.621700
0.656890
0.684260
0.704790
0.720430
0.731180
0.738030
0.741940
0.741940
0.739000
0.735090
0.729230
0.722390
0.713590
0.704790
0.694040
0.683280
0.671550
0.657870
0.643210
0.629520
0.614860
0.598240
0.579670
0.560120
0.539590
0.519060
0.499510
0.480940
0.464320
0.450640
0.437930
0.428150
0.421310
0.417400
0.413490
0.410560
0.407620
0.406650
0.404690
0.403710
0.401760
0.399800
0.396870
0.393940
0.391980
0.389050
0.386120
0.381230
0.376340
0.371460
0.366570
0.360700
0.354840
0.348970
0.344090
0.338220
0.332360
0.328450
0.325510
0.320630
0.315740
0.310850
0.305960
0.301080
0.297170
0.293260
0.288370
0.284460
0.278590
0.273700
0.269790
0.265880
0.262950
0.265880
0.277610
0.300100
0.334310
0.378300
0.428150
0.480940
0.531770
0.578690
0.613880
0.641250
0.665690
0.685240
0.701860
0.713590
0.721410
0.727270
0.729230
0.729230
0.727270
0.723360
0.717500
0.710650
0.701860
0.693060
0.682310
0.671550
0.657870
0.644180
0.628540
0.610950
0.592380
0.572830
0.552300
0.534700
0.518080
0.501470
0.484850
0.470190
0.457480
0.447700
0.438910
0.432060
0.426200
0.422290
0.419350
0.416420
0.414470
0.412510
0.410560
0.407620
0.403710
0.400780
0.396870
0.391980
0.388070
0.382210
0.377320
0.372430
0.368520
0.363640
0.357770
0.352880
0.347020
0.341150
0.335290
0.330400
0.324540
0.319650
0.313780
0.308900
0.304990
0.301080
0.297170
0.293260
0.289350
0.284460
0.279570
0.274680
0.268820
0.261970
0.258060
0.257090
0.261000
0.271750
0.293260
0.325510
0.368520
0.418380
0.471160
0.522970
0.570870
0.611930
0.647120
0.674490
0.695990
0.710650
0.720430
0.729230
0.735090
0.739000
0.739980
0.738030
0.734120
0.729230
0.721410
0.713590
0.703810
0.694040
0.683280
0.670580
0.656890
0.641250
0.624630
0.606060
0.585530
0.565000
0.544480
0.523950
0.505380
0.488760
0.475070
0.463340
0.453570
0.444770
0.437930
0.432060
0.428150
0.424240
0.421310
0.419350
0.416420
0.414470
0.412510
0.410560
0.407620
0.403710
0.399800
0.395890
0.391010
0.386120
0.381230
0.375370
0.370480
0.364610
0.358750
0.353860
0.349950
0.345060
0.339200
0.334310
0.328450
0.322580
0.316720
0.310850
0.305960
0.300100
0.296190
0.292280
0.289350
0.285430
0.280550
0.274680
0.267840
0.263930
0.262950
0.268820
0.284460
0.310850
0.348000
0.392960
0.436950
0.478980
0.524930
0.569890
0.608990
0.642230
0.668620
0.690130
0.706740
0.719450
0.728250
0.734120
0.736070
0.735090
0.734120
0.730210
0.725320
0.719450
0.711630
0.702830
0.693060
0.681330
0.668620
0.653960
0.637340
0.621700
0.605080
0.586510
0.565980
0.545450
0.524930
0.505380
0.487780
0.472140
0.458460
0.447700
0.438910
0.432060
0.428150
0.424240
0.420330
0.417400
0.414470
0.411530
0.408600
0.405670
0.401760
0.397850
0.393940
0.390030
0.387100
0.384160
0.380250
0.375370
0.370480
0.364610
0.359730
0.353860
0.348000
0.342130
0.336270
0.330400
0.325510
0.321600
0.316720
0.310850
0.304990
0.300100
0.294230
0.289350
0.284460
0.279570
0.274680
0.267840
0.261970
0.257090
0.255130
0.258060
0.267840
0.287390
0.319650
0.362660
0.413490
0.468230
0.521990
0.571850
0.614860
0.647120
0.671550
0.692080
0.709680
0.723360
0.734120
0.740960
0.744870
0.745850
0.744870
0.740960
0.736070
0.729230
0.722390
0.713590
0.703810
0.693060
0.681330
0.668620
0.653960
0.637340
0.620720
0.601170
0.581620
0.562070
0.544480
0.528840
0.512220
0.496580
0.481920
0.470190
0.459430
0.451610
0.444770
0.438910
0.435000
0.431090
0.428150
0.426200
0.423260
0.419350
0.415440
0.411530
0.406650
0.401760
0.395890
0.390030
0.384160
0.377320
0.370480
0.364610
0.359730
0.353860
0.347020
0.340180
0.334310
0.327470
0.321600
0.315740
0.309870
0.304010
0.298140
0.293260
0.290320
0.285430
0.280550
0.275660
0.270770
0.264910
0.258060
0.251220
0.245360
0.242420
0.245360
0.258060
0.277610
0.304990
0.346040
0.395890
0.450640
0.505380
0.557180
0.601170
0.638320
0.667640
0.690130
0.706740
0.718480
0.724340
0.730210
0.733140
0.734120
0.732160
0.729230
0.723360
0.716520
0.708700
0.698920
0.689150
0.677420
0.665690
0.653960
0.639300
0.623660
0.606060
0.586510
0.566960
0.546430
0.525900
0.506350
0.487780
0.472140
0.459430
0.448680
0.439880
0.432060
0.426200
0.421310
0.417400
0.413490
0.410560
0.408600
0.405670
0.403710
0.400780
0.397850
0.395890
0.391980
0.388070
0.384160
0.379280
0.374390
0.368520
0.363640
0.357770
0.351910
0.346040
0.341150
0.337240
0.332360
0.327470
0.321600
0.315740
0.309870
0.304010
0.298140
0.293260
0.288370
0.283480
0.278590
0.275660
0.272730
0.266860
0.261000
0.255130
0.251220
0.252200
0.261970
0.281520
0.311830
0.352880
0.402740
0.448680
0.491690
0.536660
0.579670
0.617790
0.649070
0.673510
0.694040
0.708700
0.719450
0.726300
0.731180
0.732160
0.730210
0.727270
0.721410
0.715540
0.707720
0.698920
0.689150
0.678400
0.665690
0.652000
0.636360
0.619750
0.603130
0.586510
0.567940
0.548390
0.528840
0.509290
0.491690
0.475070
0.461390
0.449660
0.439880
0.432060
0.425220
0.421310
0.418380
0.415440
0.413490
0.410560
0.408600
0.406650
0.403710
0.400780
0.396870
0.392960
0.389050
0.385140
0.381230
0.376340
0.371460
0.365590
0.359730
0.353860
0.348000
0.342130
0.336270
0.330400
0.324540
0.318670
0.314760
0.310850
0.305960
0.301080
0.296190
0.291300
0.286410
0.282500
0.277610
0.272730
0.265880
0.260020
0.256110
0.254150
0.256110
0.264910
0.284460
0.313780
0.353860
0.401760
0.453570
0.505380
0.554250
0.596290
0.628540
0.652980
0.674490
0.693060
0.708700
0.719450
0.728250
0.733140
0.735090
0.734120
0.731180
0.726300
0.719450
0.711630
0.702830
0.693060
0.682310
0.669600
0.655910
0.640270
0.623660
0.605080
0.585530
0.565000
0.544480
0.525900
0.510260
0.493650
0.478010
0.464320
0.452590
0.442820
0.435000
0.429130
0.424240
0.420330
0.421310
0.423260
0.424240
0.423260
0.422290
0.420330
0.417400
0.414470
0.410560
0.406650
0.401760
0.396870
0.391980
0.386120
0.381230
0.377320
0.372430
0.366570
0.360700
0.354840
0.348970
0.343110
0.337240
0.331380
0.325510
0.319650
0.313780
0.309870
0.306940
0.303030
0.299120
0.295210
0.289350
0.284460
0.277610
0.272730
0.270770
0.274680
0.287390
0.305960
0.331380
0.370480
0.417400
0.469210
0.521990
0.570870
0.613880
0.651030
0.680350
0.702830
0.721410
0.735090
0.742910
0.746820
0.750730
0.751710
0.750730
0.747800
0.742910
0.736070
0.728250
0.719450
0.708700
0.697950
0.686220
0.674490
0.659820
0.643210
0.625610
0.606060
0.585530
0.565000
0.544480
0.524930
0.507330
0.491690
0.478010
0.468230
0.460410
0.453570
0.447700
0.442820
0.439880
0.436950
0.435000
0.433040
0.430110
0.428150
0.425220
0.422290
0.420330
0.416420
0.412510
0.407620
0.402740
0.397850
0.391980
0.386120
0.380250
0.374390
0.368520
0.362660
0.358750
0.354840
0.350930
0.347020
0.342130
0.337240
0.332360
0.328450
0.323560
0.319650
0.315740
0.310850
0.306940
0.304010
0.298140
0.292280
0.286410
0.285430
0.290320
0.305960
0.333330
0.372430
0.420330
0.474100
0.527860
0.573800
0.610950
0.647120
0.678400
0.702830
0.722390
0.737050
0.747800
0.754640
0.758550
0.758550
0.757580
0.752690
0.746820
0.739980
0.731180
0.721410
0.710650
0.699900
0.687190
0.673510
0.658850
0.642230
0.624630
0.606060
0.587490
0.570870
0.551320
0.531770
0.513200
0.494620
0.478980
0.465300
0.453570
0.443790
0.435970
0.430110
0.425220
0.422290
0.420330
0.417400
0.414470
0.411530
0.408600
0.405670
0.402740
0.398830
0.393940
0.389050
0.385140
0.381230
0.377320
0.371460
0.366570
0.360700
0.354840
0.348970
0.343110
0.338220
0.332360
0.327470
0.321600
0.317690
0.314760
0.309870
0.305960
0.301080
0.296190
0.292280
0.288370
0.283480
0.278590
0.272730
0.266860
0.261970
0.261000
0.262950
0.272730
0.292280
0.322580
0.364610
0.413490
0.467250
0.520040
0.568910
0.611930
0.647120
0.673510
0.692080
0.708700
0.721410
0.732160
0.739000
0.742910
0.744870
0.742910
0.739980
0.734120
0.727270
0.719450
0.711630
0.701860
0.690130
0.678400
0.664710
0.649070
0.632450
0.613880
0.594330
0.573800
0.553270
0.532750
0.516130
0.501470
0.486800
0.473120
0.461390
0.451610
0.443790
0.437930
0.433040
0.430110
0.426200
0.424240
0.422290
0.420330
0.418380
0.415440
0.412510
0.406650
0.399800
0.393940
0.389050
0.384160
0.378300
0.372430
0.366570
0.362660
0.357770
0.352880
0.347020
0.341150
0.335290
0.329420
0.323560
0.317690
0.311830
0.306940
0.301080
0.297170
0.294230
0.290320
0.286410
0.282500
0.277610
0.272730
0.265880
0.261000
0.257090
0.258060
0.265880
0.284460
0.308900
0.340180
0.382210
0.432060
0.483870
0.532750
0.577710
0.616810
0.648090
0.673510
0.694040
0.708700
0.718480
0.724340
0.729230
0.731180
0.732160
0.730210
0.726300
0.720430
0.713590
0.704790
0.695010
0.684260
0.671550
0.658850
0.645160
0.629520
0.611930
0.593350
0.572830
0.551320
0.530790
0.511240
0.492670
0.476050
0.462370
0.451610
0.443790
0.436950
0.431090
0.427170
0.423260
0.421310
0.419350
0.417400
0.415440
0.413490
0.411530
0.408600
0.405670
0.403710
0.399800
0.394920
0.390030
0.385140
0.379280
0.373410
0.367550
0.360700
0.354840
0.348970
0.344090
0.340180
0.335290
0.330400
0.325510
0.319650
0.314760
0.309870
0.305960
0.301080
0.296190
0.292280
0.287390
0.284460
0.280550
0.275660
0.269790
0.265880
0.265880
0.272730
0.289350
0.316720
0.354840
0.400780
0.450640
0.494620
0.534700
0.574780
0.611930
0.644180
0.669600
0.691100
0.707720
0.719450
0.728250
0.734120
0.737050
0.737050
0.735090
0.731180
0.726300
0.719450
0.711630
0.703810
0.694040
0.682310
0.669600
0.655910
0.640270
0.622680
0.607040
0.590420
0.572830
0.554250
0.535680
0.519060
0.503420
0.490710
0.478980
0.470190
0.462370
0.456500
0.452590
0.448680
0.445750
0.443790
0.440860
0.438910
0.436950
0.434020
0.432060
0.429130
0.425220
0.421310
0.417400
0.413490
0.410560
0.405670
0.400780
0.394920
0.389050
0.382210
0.376340
0.370480
0.363640
0.357770
0.351910
0.348000
0.344090
0.339200
0.334310
0.330400
0.325510
0.321600
0.317690
0.313780
0.309870
0.304990
0.299120
0.294230
0.292280
0.293260
0.301080
0.317690
0.344090
0.381230
0.426200
0.475070
0.523950
0.570870
0.611930
0.647120
0.671550
0.690130
0.706740
0.719450
0.729230
0.736070
0.739980
0.740960
0.739980
0.736070
0.730210
0.723360
0.715540
0.707720
0.697950
0.688170
0.677420
0.664710
0.651030
0.636360
0.619750
0.602150
0.583580
0.564030
0.545450
0.528840
0.515150
0.500490
0.486800
0.475070
0.465300
0.457480
0.450640
0.445750
0.440860
0.437930
0.434020
0.431090
0.428150
0.425220
0.422290
0.418380
0.414470
0.409580
0.404690
0.398830
0.392960
0.386120
0.380250
0.373410
0.367550
0.361680
0.355820
0.348970
0.343110
0.336270
0.329420
0.323560
0.316720
0.309870
0.304010
0.297170
0.290320
0.286410
0.282500
0.278590
0.273700
0.267840
0.261970
0.256110
0.249270
0.244380
0.244380
0.250240
0.266860
0.288370
0.317690
0.359730
0.409580
0.462370
0.515150
0.563050
0.604110
0.638320
0.665690
0.687190
0.702830
0.715540
0.722390
0.725320
0.726300
0.726300
0.724340
0.719450
0.713590
0.706740
0.697950
0.688170
0.677420
0.664710
0.652980
0.641250
0.626590
0.609970
0.592380
0.572830
0.552300
0.531770
0.512220
0.492670
0.476050
0.460410
0.447700
0.438910
0.431090
0.425220
0.420330
0.416420
0.413490
0.411530
0.409580
0.407620
0.405670
0.402740
0.399800
0.397850
0.394920
0.391980
0.388070
0.383190
0.378300
0.372430
0.366570
0.361680
0.355820
0.348970
0.343110
0.337240
0.332360
0.328450
0.323560
0.318670
0.312810
0.306940
0.302050
0.296190
0.291300
0.286410
0.282500
0.278590
0.275660
0.272730
0.268820
0.263930
0.258060
0.254150
0.255130
0.261970
0.279570
0.307920
0.347020
0.394920
0.445750
0.491690
0.532750
0.573800
0.610950
0.642230
0.668620
0.689150
0.705770
0.717500
0.725320
0.731180
0.733140
0.731180
0.728250
0.723360
0.716520
0.708700
0.699900
0.689150
0.678400
0.665690
0.652000
0.636360
0.619750
0.603130
0.586510
0.567940
0.548390
0.528840
0.510260
0.492670
0.477030
0.463340
0.451610
0.442820
0.435970
0.430110
0.426200
0.423260
0.421310
0.418380
0.416420
0.413490
0.411530
0.408600
0.405670
0.401760
0.398830
0.393940
0.391010
0.387100
0.383190
0.378300
0.373410
0.367550
0.362660
0.356790
0.350930
0.345060
0.340180
0.334310
0.328450
0.324540
0.320630
0.316720
0.311830
0.306940
0.303030
0.299120
0.295210
0.291300
0.287390
0.282500
0.277610
0.273700
0.271750
0.271750
0.277610
0.290320
0.314760
0.348000
0.391010
0.439880
0.489740
0.537630
0.581620
0.619750
0.647120
0.668620
0.687190
0.703810
0.715540
0.725320
0.731180
0.735090
0.735090
0.733140
0.729230
0.723360
0.716520
0.708700
0.699900
0.689150
0.678400
0.665690
0.652000
0.636360
0.618770
0.600200
0.580650
0.560120
0.540570
0.522970
0.508310
0.492670
0.478010
0.466280
0.455520
0.446730
0.439880
0.434020
0.430110
0.427170
0.424240
0.421310
0.420330
0.417400
0.415440
0.412510
0.408600
0.404690
0.400780
0.395890
0.391010
0.385140
0.379280
0.373410
0.369500
0.364610
0.359730
0.353860
0.348000
0.345060
0.343110
0.339200
0.335290
0.329420
0.324540
0.319650
0.315740
0.312810
0.308900
0.304990
0.301080
0.297170
0.292280
0.287390
0.281520
0.276640
0.274680
0.278590
0.290320
0.307920
0.332360
0.369500
0.414470
0.465300
0.516130
0.564030
0.607040
0.643210
0.673510
0.696970
0.715540
0.727270
0.736070
0.741940
0.746820
0.748780
0.747800
0.744870
0.739980
0.734120
0.725320
0.716520
0.705770
0.694040
0.682310
0.669600
0.654940
0.638320
0.620720
0.602150
0.582600
0.562070
0.542520
0.523950
0.507330
0.492670
0.481920
0.473120
0.465300
0.459430
0.454550
0.450640
0.447700
0.445750
0.442820
0.440860
0.438910
0.435970
0.434020
0.431090
0.429130
0.425220
0.421310
0.416420
0.411530
0.405670
0.399800
0.393940
0.387100
0.381230
0.374390
0.369500
0.364610
0.359730
0.353860
0.348000
0.342130
0.336270
0.331380
0.325510
0.320630
0.315740
0.310850
0.306940
0.304010
0.300100
0.294230
0.287390
0.280550
0.274680
0.273700
0.281520
0.300100
0.331380
0.375370
0.427170
0.477030
0.522970
0.571850
0.616810
0.655910
0.687190
0.711630
0.729230
0.742910
0.751710
0.756600
0.758550
0.756600
0.753670
0.747800
0.740960
0.733140
0.724340
0.714570
0.703810
0.692080
0.679370
0.665690
0.650050
0.633430
0.617790
0.601170
0.582600
0.563050
0.542520
0.521990
0.503420
0.485830
0.471160
0.458460
0.448680
0.440860
0.435000
0.431090
0.428150
0.425220
0.423260
0.420330
0.418380
0.416420
0.413490
0.410560
0.407620
0.403710
0.398830
0.394920
0.391980
0.387100
0.382210
0.377320
0.371460
0.365590
0.360700
0.354840
0.348970
0.343110
0.337240
0.333330
0.329420
0.324540
0.319650
0.314760
0.309870
0.304990
0.300100
0.295210
0.290320
0.285430
0.279570
0.273700
0.267840
0.264910
0.262950
0.266860
0.279570
0.304010
0.339200
0.385140
0.437930
0.492670
0.544480
0.592380
0.627570
0.654940
0.680350
0.699900
0.716520
0.728250
0.737050
0.742910
0.744870
0.744870
0.742910
0.738030
0.732160
0.724340
0.716520
0.706740
0.695990
0.684260
0.671550
0.656890
0.640270
0.622680
0.604110
0.583580
0.563050
0.544480
0.526880
0.510260
0.493650
0.478010
0.465300
0.454550
0.446730
0.439880
0.434020
0.430110
0.427170
0.424240
0.422290
0.421310
0.419350
0.416420
0.414470
0.411530
0.407620
0.404690
0.399800
0.395890
0.391010
0.386120
0.381230
0.378300
0.373410
0.368520
0.362660
0.357770
0.351910
0.346040
0.340180
0.335290
0.329420
0.323560
0.315740
0.307920
0.303030
0.298140
0.293260
0.289350
0.284460
0.279570
0.274680
0.268820
0.263930
0.261000
0.262950
0.270770
0.285430
0.311830
0.348970
0.393940
0.445750
0.497560
0.547410
0.592380
0.630500
0.660800
0.686220
0.704790
0.717500
0.725320
0.732160
0.737050
0.739980
0.739980
0.738030
0.733140
0.728250
0.720430
0.711630
0.701860
0.692080
0.681330
0.668620
0.653960
0.638320
0.620720
0.602150
0.581620
0.561090
0.540570
0.521020
0.503420
0.486800
0.474100
0.464320
0.455520
0.447700
0.441840
0.436950
0.434020
0.431090
0.429130
0.426200
0.424240
0.422290
0.420330
0.418380
0.415440
0.411530
0.407620
0.403710
0.398830
0.393940
0.389050
0.383190
0.376340
0.370480
0.365590
0.360700
0.355820
0.349950
0.344090
0.338220
0.332360
0.326490
0.320630
0.315740
0.309870
0.304990
0.300100
0.296190
0.294230
0.290320
0.285430
0.280550
0.274680
0.268820
0.266860
0.269790
0.281520
0.304010
0.337240
0.373410
0.412510
0.459430
0.508310
0.556210
0.598240
0.633430
0.662760
0.686220
0.704790
0.718480
0.729230
0.736070
0.739000
0.739000
0.738030
0.735090
0.730210
0.724340
0.717500
0.708700
0.698920
0.687190
0.675460
0.661780
0.648090
0.633430
0.616810
0.598240
0.578690
0.559140
0.539590
0.520040
0.503420
0.487780
0.474100
0.463340
0.453570
0.447700
0.442820
0.437930
0.434020
0.431090
0.429130
0.426200
0.424240
0.422290
0.419350
0.416420
0.413490
0.410560
0.407620
0.403710
0.398830
0.393940
0.388070
0.383190
0.377320
0.370480
0.364610
0.358750
0.352880
0.347020
0.343110
0.339200
0.335290
0.330400
0.325510
0.320630
0.316720
0.311830
0.307920
0.304010
0.300100
0.295210
0.291300
0.287390
0.283480
0.280550
0.282500
0.292280
0.312810
0.345060
0.387100
0.436950
0.489740
0.541540
0.589440
0.626590
0.655910
0.681330
0.703810
0.720430
0.734120
0.743890
0.750730
0.753670
0.754640
0.752690
0.749760
0.743890
0.737050
0.729230
0.719450
0.709680
0.698920
0.686220
0.673510
0.657870
0.642230
0.624630
0.606060
0.586510
0.568910
0.552300
0.534700
0.517110
0.501470
0.487780
0.475070
0.465300
0.457480
0.450640
0.444770
0.440860
0.436950
0.434020
0.431090
0.427170
0.423260
0.419350
0.414470
0.409580
0.404690
0.397850
0.391980
0.385140
0.378300
0.372430
0.366570
0.360700
0.353860
0.347020
0.340180
0.334310
0.328450
0.322580
0.316720
0.310850
0.305960
0.301080
0.298140
0.294230
0.289350
0.284460
0.280550
0.273700
0.266860
0.260020
0.254150
0.248290
0.244380
0.244380
0.250240
0.263930
0.287390
0.323560
0.369500
0.421310
0.477030
0.529810
0.576740
0.617790
0.650050
0.676440
0.694040
0.705770
0.715540
0.723360
0.728250
0.730210
0.730210
0.728250
0.723360
0.718480
0.710650
0.701860
0.693060
0.683280
0.672530
0.660800
0.647120
0.631480
0.614860
0.597260
0.577710
0.557180
0.536660
0.517110
0.498530
0.482890
0.470190
0.457480
0.446730
0.437930
0.430110
0.424240
0.419350
0.415440
0.412510
0.409580
0.407620
0.405670
0.403710
0.400780
0.398830
0.394920
0.391980
0.387100
0.383190
0.377320
0.372430
0.366570
0.360700
0.354840
0.349950
0.346040
0.341150
0.335290
0.329420
0.323560
0.317690
0.311830
0.305960
0.301080
0.295210
0.290320
0.287390
0.284460
0.280550
0.276640
0.272730
0.267840
0.261970
0.256110
0.251220
0.251220
0.259040
0.275660
0.304010
0.336270
0.373410
0.420330
0.471160
0.521020
0.565980
0.605080
0.638320
0.663730
0.684260
0.699900
0.711630
0.718480
0.721410
0.723360
0.723360
0.721410
0.717500
0.711630
0.703810
0.695990
0.686220
0.675460
0.663730
0.651030
0.637340
0.623660
0.608020
0.590420
0.571850
0.551320
0.531770
0.512220
0.494620
0.478010
0.464320
0.451610
0.442820
0.435970
0.430110
0.424240
0.420330
0.417400
0.414470
0.411530
0.408600
0.406650
0.403710
0.400780
0.397850
0.394920
0.391980
0.388070
0.384160
0.379280
0.373410
0.368520
0.362660
0.356790
0.349950
0.344090
0.338220
0.333330
0.329420
0.323560
0.318670
0.312810
0.306940
0.302050
0.296190
0.291300
0.287390
0.282500
0.278590
0.273700
0.269790
0.266860
0.261970
0.257090
0.255130
0.258060
0.270770
0.293260
0.326490
0.369500
0.418380
0.470190
0.515150
0.553270
0.590420
0.623660
0.652000
0.674490
0.693060
0.706740
0.716520
0.723360
0.727270
0.728250
0.727270
0.724340
0.719450
0.712610
0.705770
0.696970
0.687190
0.676440
0.663730
0.650050
0.634410
0.616810
0.598240
0.580650
0.564030
0.545450
0.525900
0.507330
0.489740
0.475070
0.461390
0.450640
0.441840
0.435000
0.430110
0.426200
0.423260
0.420330
0.418380
0.416420
0.413490
0.410560
0.407620
0.404690
0.400780
0.396870
0.391980
0.387100
0.383190
0.379280
0.374390
0.368520
0.362660
0.356790
0.350930
0.344090
0.338220
0.332360
0.326490
0.320630
0.314760
0.310850
0.306940
0.303030
0.298140
0.293260
0.289350
0.284460
0.280550
0.274680
0.269790
0.263930
0.259040
0.260020
0.267840
0.279570
0.300100
0.331380
0.372430
0.421310
0.474100
0.526880
0.574780
0.617790
0.652980
0.679370
0.697950
0.713590
0.727270
0.737050
0.744870
0.748780
0.750730
0.749760
0.746820
0.742910
0.736070
0.729230
0.720430
0.711630
0.701860
0.690130
0.676440
0.661780
0.645160
0.627570
0.608020
0.587490
0.566960
0.546430
0.529810
0.514170
0.499510
0.485830
0.474100
0.465300
0.457480
0.451610
0.447700
0.444770
0.441840
0.439880
0.436950
0.435970
0.434020
0.431090
0.429130
0.425220
0.421310
0.417400
0.412510
0.407620
0.401760
0.395890
0.389050
0.384160
0.379280
0.373410
0.367550
0.361680
0.355820
0.349950
0.344090
0.338220
0.332360
0.326490
0.321600
0.315740
0.311830
0.308900
0.304990
0.300100
0.294230
0.287390
0.279570
0.272730
0.269790
0.272730
0.285430
0.310850
0.342130
0.379280
0.428150
0.482890
0.538610
0.590420
0.634410
0.670580
0.699900
0.721410
0.737050
0.747800
0.754640
0.757580
0.757580
0.755620
0.751710
0.745850
0.739000
0.731180
0.721410
0.710650
0.699900
0.687190
0.673510
0.659820
0.645160
0.628540
0.609970
0.590420
0.568910
0.546430
0.524930
0.503420
0.483870
0.465300
0.449660
0.435970
0.426200
0.419350
0.413490
0.408600
0.404690
0.401760
0.399800
0.397850
0.396870
0.394920
0.393940
0.391010
0.390030
0.388070
0.385140
0.381230
0.377320
0.373410
0.368520
0.363640
0.358750
0.352880
0.348000
0.342130
0.336270
0.332360
0.328450
0.323560
0.318670
0.313780
0.308900
0.304010
0.299120
0.295210
0.290320
0.286410
0.281520
0.277610
0.273700
0.268820
0.263930
0.261970
0.266860
0.280550
0.305960
0.342130
0.389050
0.442820
0.497560
0.551320
0.593350
0.627570
0.658850
0.686220
0.706740
0.723360
0.735090
0.742910
0.747800
0.749760
0.748780
0.744870
0.739980
0.733140
0.725320
0.715540
0.705770
0.694040
0.681330
0.667640
0.652000
0.635390
0.616810
0.597260
0.576740
0.559140
0.541540
0.523950
0.505380
0.489740
0.475070
0.462370
0.452590
0.443790
0.437930
0.432060
0.428150
0.425220
0.423260
0.421310
0.418380
0.416420
0.413490
0.410560
0.406650
0.402740
0.398830
0.393940
0.389050
0.384160
0.379280
0.375370
0.370480
0.364610
0.358750
0.352880
0.347020
0.341150
0.335290
0.329420
0.323560
0.318670
0.314760
0.311830
0.307920
0.303030
0.299120
0.294230
0.290320
0.285430
0.280550
0.275660
0.268820
0.263930
0.261000
0.261970
0.269790
0.286410
0.314760
0.353860
0.401760
0.452590
0.503420
0.552300
0.596290
0.634410
0.665690
0.688170
0.703810
0.717500
0.728250
0.737050
0.741940
0.743890
0.743890
0.740960
0.736070
0.730210
0.722390
0.713590
0.703810
0.693060
0.681330
0.668620
0.653960
0.638320
0.620720
0.602150
0.582600
0.562070
0.541540
0.521990
0.506350
0.492670
0.478980
0.466280
0.455520
0.447700
0.439880
0.435000
0.430110
0.427170
0.424240
0.421310
0.419350
0.417400
0.415440
0.412510
0.408600
0.404690
0.400780
0.395890
0.391010
0.386120
0.380250
0.374390
0.368520
0.363640
0.359730
0.353860
0.348970
0.343110
0.337240
0.331380
0.325510
0.319650
0.313780
0.307920
0.303030
0.299120
0.296190
0.292280
0.288370
0.283480
0.277610
0.271750
0.265880
0.261970
0.262950
0.270770
0.289350
0.317690
0.350930
0.388070
0.435000
0.484850
0.534700
0.579670
0.619750
0.652000
0.678400
0.698920
0.715540
0.728250
0.735090
0.738030
0.740960
0.740960
0.739000
0.736070
0.730210
0.723360
0.714570
0.705770
0.695010
0.682310
0.669600
0.655910
0.641250
0.624630
0.606060
0.585530
0.564030
0.542520
0.521990
0.503420
0.485830
0.471160
0.458460
0.448680
0.441840
0.435000
0.430110
0.426200
0.423260
0.421310
0.419350
0.417400
0.416420
0.414470
0.411530
0.408600
0.406650
0.403710
0.399800
0.395890
0.390030
0.385140
0.379280
0.373410
0.367550
0.360700
0.354840
0.348970
0.344090
0.339200
0.334310
0.329420
0.323560
0.318670
0.313780
0.308900
0.304010
0.299120
0.295210
0.290320
0.285430
0.281520
0.277610
0.272730
0.269790
0.271750
0.280550
0.301080
0.332360
0.375370
0.426200
0.479960
0.534700
0.578690
0.614860
0.649070
0.678400
0.701860
0.720430
0.734120
0.743890
0.750730
0.754640
0.754640
0.753670
0.749760
0.743890
0.737050
0.728250
0.719450
0.708700
0.696970
0.685240
0.671550
0.656890
0.640270
0.622680
0.603130
0.585530
0.567940
0.550340
0.531770
0.513200
0.497560
0.482890
0.470190
0.459430
0.450640
0.442820
0.436950
0.433040
0.429130
0.426200
0.422290
0.419350
0.415440
0.411530
0.406650
0.401760
0.395890
0.391010
0.384160
0.378300
0.372430
0.367550
0.361680
0.354840
0.348970
0.342130
0.336270
0.329420
0.324540
0.318670
0.312810
0.307920
0.304010
0.301080
0.296190
0.291300
0.286410
0.282500
0.277610
0.272730
0.266860
0.261000
0.254150
0.247310
0.244380
0.244380
0.252200
0.268820
0.297170
0.336270
0.386120
0.439880
0.495600
0.548390
0.595310
0.633430
0.665690
0.687190
0.700880
0.711630
0.721410
0.727270
0.732160
0.733140
0.732160
0.729230
0.723360
0.716520
0.708700
0.699900
0.690130
0.680350
0.668620
0.655910
0.642230
0.627570
0.609970
0.592380
0.573800
0.554250
0.534700
0.516130
0.500490
0.487780
0.474100
0.462370
0.452590
0.443790
0.435970
0.430110
0.425220
0.421310
0.418380
0.414470
0.411530
0.409580
0.407620
0.404690
0.401760
0.397850
0.393940
0.390030
0.385140
0.380250
0.375370
0.370480
0.364610
0.360700
0.356790
0.351910
0.347020
0.342130
0.336270
0.331380
0.325510
0.320630
0.314760
0.309870
0.304010
0.299120
0.296190
0.293260
0.290320
0.286410
0.280550
0.275660
0.269790
0.264910
0.262950
0.267840
0.281520
0.304990
0.333330
0.367550
0.411530
0.461390
0.511240
0.557180
0.599220
0.633430
0.661780
0.684260
0.701860
0.714570
0.723360
0.728250
0.730210
0.730210
0.728250
0.724340
0.719450
0.711630
0.703810
0.694040
0.684260
0.672530
0.659820
0.647120
0.633430
0.617790
0.599220
0.580650
0.560120
0.539590
0.520040
0.500490
0.483870
0.469210
0.456500
0.445750
0.437930
0.433040
0.428150
0.425220
0.422290
0.420330
0.418380
0.416420
0.414470
0.412510
0.409580
0.405670
0.403710
0.400780
0.396870
0.392960
0.388070
0.383190
0.377320
0.371460
0.365590
0.359730
0.353860
0.348000
0.342130
0.338220
0.334310
0.329420
0.324540
0.318670
0.313780
0.308900
0.304010
0.299120
0.294230
0.290320
0.285430
0.282500
0.278590
0.273700
0.268820
0.265880
0.267840
0.276640
0.295210
0.324540
0.363640
0.410560
0.460410
0.511240
0.552300
0.586510
0.619750
0.648090
0.672530
0.691100
0.705770
0.717500
0.725320
0.729230
0.731180
0.730210
0.727270
0.722390
0.716520
0.708700
0.699900
0.690130
0.679370
0.667640
0.653960
0.639300
0.622680
0.605080
0.587490
0.570870
0.553270
0.533720
0.515150
0.498530
0.482890
0.469210
0.458460
0.448680
0.440860
0.435000
0.430110
0.427170
0.424240
0.422290
0.419350
0.417400
0.414470
0.412510
0.408600
0.405670
0.401760
0.397850
0.392960
0.389050
0.385140
0.380250
0.375370
0.370480
0.364610
0.359730
0.353860
0.348000
0.342130
0.336270
0.331380
0.325510
0.320630
0.317690
0.312810
0.308900
0.304010
0.300100
0.295210
0.291300
0.286410
0.280550
0.275660
0.270770
0.267840
0.270770
0.278590
0.295210
0.322580
0.359730
0.404690
0.455520
0.506350
0.554250
0.596290
0.632450
0.662760
0.683280
0.697950
0.710650
0.721410
0.728250
0.733140
0.735090
0.738030
0.739000
0.737050
0.731180
0.724340
0.715540
0.705770
0.695010
0.683280
0.669600
0.654940
0.638320
0.619750
0.600200
0.580650
0.560120
0.539590
0.521020
0.504400
0.491690
0.478010
0.467250
0.457480
0.449660
0.442820
0.437930
0.434020
0.431090
0.428150
0.425220
0.423260
0.421310
0.419350
0.416420
0.413490
0.409580
0.405670
0.400780
0.395890
0.391010
0.385140
0.378300
0.372430
0.367550
0.362660
0.357770
0.351910
0.346040
0.341150
0.335290
0.330400
0.325510
0.319650
0.314760
0.310850
0.306940
0.304990
0.301080
0.297170
0.292280
0.286410
0.280550
0.274680
0.271750
0.275660
0.288370
0.313780
0.350930
0.391010
0.434020
0.485830
0.538610
0.588470
0.632450
0.668620
0.696970
0.718480
0.734120
0.745850
0.752690
0.755620
0.755620
0.753670
0.750730
0.744870
0.738030
0.729230
0.720430
0.709680
0.698920
0.686220
0.672530
0.657870
0.644180
0.628540
0.611930
0.592380
0.571850
0.550340
0.529810
0.509290
0.489740
0.473120
0.457480
0.444770
0.435970
0.428150
0.422290
0.417400
0.412510
0.408600
0.405670
0.402740
0.400780
0.397850
0.393940
0.390030
0.386120
0.383190
0.380250
0.375370
0.370480
0.365590
0.359730
0.353860
0.348000
0.342130
0.336270
0.330400
0.324540
0.320630
0.316720
0.312810
0.307920
0.303030
0.298140
0.293260
0.288370
0.283480
0.278590
0.273700
0.269790
0.264910
0.261000
0.257090
0.252200
0.247310
0.246330
0.251220
0.265880
0.291300
0.329420
0.376340
0.430110
0.485830
0.532750
0.572830
0.611930
0.647120
0.675460
0.697950
0.715540
0.729230
0.738030
0.743890
0.745850
0.745850
0.741940
0.737050
0.730210
0.722390
0.713590
0.702830
0.692080
0.679370
0.665690
0.650050
0.633430
0.615840
0.596290
0.577710
0.561090
0.541540
0.522970
0.504400
0.486800
0.472140
0.458460
0.447700
0.438910
0.431090
0.426200
0.422290
0.419350
0.416420
0.414470
0.412510
0.409580
0.407620
0.404690
0.400780
0.396870
0.392960
0.388070
0.383190
0.379280
0.375370
0.369500
0.364610
0.358750
0.351910
0.346040
0.340180
0.334310
0.328450
0.322580
0.316720
0.311830
0.307920
0.303030
0.298140
0.293260
0.288370
0.283480
0.278590
0.273700
0.268820
0.262950
0.256110
0.251220
0.249270
0.251220
0.260020
0.278590
0.308900
0.349950
0.398830
0.465300
0.525900
0.566960
0.607040
0.642230
0.667640
0.687190
0.704790
0.719450
0.730210
0.738030
0.742910
0.744870
0.743890
0.740960
0.735090
0.728250
0.719450
0.710650
0.697950
0.684260
0.669600
0.654940
0.639300
0.622680
0.604110
0.584560
0.565000
0.544480
0.524930
0.508310
0.493650
0.478980
0.466280
0.455520
0.445750
0.438910
0.433040
0.428150
0.424240
0.421310
0.419350
0.417400
0.415440
0.413490
0.411530
0.408600
0.405670
0.401760
0.397850
0.392960
0.388070
0.382210
0.377320
0.371460
0.366570
0.361680
0.356790
0.350930
0.345060
0.339200
0.333330
0.328450
0.322580
0.316720
0.311830
0.305960
0.301080
0.297170
0.295210
0.291300
0.287390
0.282500
0.277610
0.271750
0.265880
0.262950
0.263930
0.272730
0.291300
0.314760
0.346040
0.388070
0.436950
0.487780
0.537630
0.581620
0.620720
0.652000
0.677420
0.696970
0.711630
0.723360
0.729230
0.732160
0.734120
0.734120
0.732160
0.728250
0.722390
0.715540
0.706740
0.695990
0.685240
0.672530
0.659820
0.647120
0.631480
0.614860
0.596290
0.576740
0.556210
0.536660
0.518080
0.500490
0.484850
0.471160
0.460410
0.451610
0.445750
0.439880
0.435970
0.432060
0.428150
0.426200
0.423260
0.421310
0.418380
0.414470
0.411530
0.409580
0.406650
0.403710
0.399800
0.394920
0.390030
0.384160
0.379280
0.373410
0.367550
0.361680
0.354840
0.350930
0.347020
0.342130
0.336270
0.331380
0.326490
0.321600
0.316720
0.311830
0.307920
0.304010
0.300100
0.296190
0.293260
0.290320
0.286410
0.280550
0.277610
0.277610
0.285430
0.303030
0.332360
0.372430
0.421310
0.474100
0.521020
0.562070
0.603130
0.640270
0.670580
0.695990
0.714570
0.729230
0.739000
0.745850
0.749760
0.749760
0.748780
0.743890
0.738030
0.731180
0.723360
0.713590
0.703810
0.692080
0.679370
0.665690
0.651030
0.634410
0.615840
0.599220
0.581620
0.562070
0.542520
0.521990
0.503420
0.486800
0.471160
0.459430
0.448680
0.440860
0.435000
0.430110
0.427170
0.424240
0.422290
0.420330
0.417400
0.414470
0.411530
0.407620
0.402740
0.398830
0.392960
0.388070
0.383190
0.378300
0.372430
0.366570
0.360700
0.353860
0.348000
0.342130
0.336270
0.330400
0.325510
0.319650
0.314760
0.310850
0.307920
0.304010
0.299120
0.294230
0.290320
0.285430
0.281520
0.276640
0.270770
0.264910
0.259040
0.256110
0.256110
0.261000
0.275660
0.301080
0.338220
0.385140
0.437930
0.493650
0.545450
0.593350
0.632450
0.664710
0.686220
0.703810
0.717500
0.726300
0.732160
0.736070
0.737050
0.736070
0.732160
0.727270
0.720430
0.712610
0.704790
0.695010
0.685240
0.673510
0.660800
0.647120
0.631480
0.614860
0.595310
0.575760
0.555230
0.534700
0.515150
0.498530
0.483870
0.470190
0.457480
0.445750
0.436950
0.429130
0.424240
0.419350
0.416420
0.413490
0.411530
0.409580
0.408600
0.406650
0.403710
0.400780
0.396870
0.392960
0.389050
0.384160
0.378300
0.373410
0.367550
0.361680
0.356790
0.351910
0.347020
0.342130
0.336270
0.330400
0.325510
0.319650
0.314760
0.308900
0.304010
0.299120
0.296190
0.293260
0.289350
0.286410
0.282500
0.277610
0.272730
0.266860
0.261000
0.257090
0.258060
0.266860
0.286410
0.309870
0.341150
0.383190
0.433040
0.483870
0.533720
0.578690
0.616810
0.647120
0.672530
0.691100
0.705770
0.714570
0.720430
0.724340
0.726300
0.725320
0.723360
0.718480
0.712610
0.704790
0.695990
0.686220
0.675460
0.663730
0.652000
0.639300
0.624630
0.608020
0.590420
0.570870
0.552300
0.532750
0.514170
0.496580
0.481920
0.468230
0.457480
0.449660
0.441840
0.435000
0.430110
0.425220
0.422290
0.419350
0.416420
0.414470
0.411530
0.408600
0.406650
0.404690
0.401760
0.397850
0.393940
0.388070
0.382210
0.378300
0.373410
0.367550
0.361680
0.355820
0.349950
0.346040
0.341150
0.336270
0.331380
0.325510
0.319650
0.313780
0.307920
0.303030
0.298140
0.293260
0.289350
0.286410
0.283480
0.279570
0.273700
0.267840
0.262950
0.261000
0.264910
0.278590
0.302050
0.336270
0.379280
0.429130
0.473120
0.514170
0.556210
0.595310
0.629520
0.656890
0.678400
0.695990
0.708700
0.718480
0.724340
0.727270
0.727270
0.724340
0.721410
0.715540
0.709680
0.701860
0.693060
0.682310
0.671550
0.658850
0.644180
0.628540
0.611930
0.595310
0.579670
0.561090
0.542520
0.522970
0.504400
0.487780
0.472140
0.458460
0.447700
0.437930
0.430110
0.425220
0.421310
0.417400
0.414470
0.411530
0.408600
0.406650
0.404690
0.401760
0.398830
0.395890
0.391980
0.388070
0.385140
0.381230
0.377320
0.372430
0.367550
0.362660
0.357770
0.351910
0.347020
0.341150
0.336270
0.330400
0.326490
0.323560
0.318670
0.313780
0.308900
0.304010
0.300100
0.295210
0.291300
0.286410
0.281520
0.275660
0.269790
0.266860
0.265880
0.267840
0.277610
0.297170
0.326490
0.366570
0.414470
0.465300
0.515150
0.562070
0.603130
0.634410
0.657870
0.678400
0.695990
0.709680
0.719450
0.726300
0.731180
0.731180
0.730210
0.727270
0.723360
0.717500
0.709680
0.701860
0.692080
0.681330
0.669600
0.655910
0.641250
0.624630
0.607040
0.588470
0.568910
0.548390
0.531770
0.516130
0.502440
0.489740
0.478010
0.468230
0.459430
0.452590
0.447700
0.442820
0.439880
0.436950
0.434020
0.431090
0.429130
0.427170
0.423260
0.420330
0.415440
0.411530
0.406650
0.401760
0.395890
0.390030
0.384160
0.379280
0.374390
0.369500
0.363640
0.357770
0.351910
0.346040
0.340180
0.334310
0.329420
0.324540
0.318670
0.314760
0.310850
0.307920
0.304990
0.301080
0.297170
0.292280
0.286410
0.280550
0.275660
0.275660
0.281520
0.298140
0.321600
0.351910
0.394920
0.446730
0.501470
0.555230
0.604110
0.645160
0.679370
0.705770
0.725320
0.739980
0.748780
0.753670
0.756600
0.756600
0.755620
0.751710
0.745850
0.739000
0.730210
0.720430
0.709680
0.697950
0.685240
0.672530
0.659820
0.645160
0.628540
0.609970
0.589440
0.568910
0.548390
0.527860
0.509290
0.491690
0.476050
0.464320
0.454550
0.445750
0.438910
0.433040
0.428150
0.425220
0.421310
0.418380
0.415440
0.412510
0.409580
0.406650
0.403710
0.400780
0.396870
0.391980
0.387100
0.382210
0.377320
0.371460
0.365590
0.359730
0.353860
0.348000
0.344090
0.341150
0.336270
0.331380
0.327470
0.322580
0.317690
0.312810
0.306940
0.302050
0.298140
0.293260
0.289350
0.286410
0.283480
0.279570
0.274680
0.269790
0.266860
0.267840
0.276640
0.296190
0.325510
0.364610
0.411530
0.456500
0.497560
0.541540
0.583580
0.620720
0.651030
0.675460
0.695010
0.709680
0.720430
0.727270
0.732160
0.733140
0.732160
0.728250
0.724340
0.717500
0.710650
0.701860
0.692080
0.681330
0.669600
0.655910
0.640270
0.623660
0.608020
0.591400
0.572830
0.554250
0.533720
0.515150
0.496580
0.480940
0.466280
0.453570
0.443790
0.435970
0.429130
0.425220
0.422290
0.419350
0.416420
0.414470
0.412510
0.410560
0.408600
0.405670
0.402740
0.399800
0.395890
0.391980
0.389050
0.384160
0.379280
0.373410
0.367550
0.361680
0.354840
0.348970
0.342130
0.336270
0.330400
0.324540
0.320630
0.315740
0.309870
0.305960
0.302050
0.297170
0.293260
0.289350
0.285430
0.279570
0.273700
0.268820
0.264910
0.263930
0.263930
0.267840
0.280550
0.315740
0.355820
0.389050
0.434020
0.493650
0.548390
0.584560
0.618770
0.645160
0.665690
0.684260
0.700880
0.713590
0.722390
0.729230
0.732160
0.733140
0.731180
0.727270
0.721410
0.712610
0.703810
0.693060
0.682310
0.673510
0.661780
0.649070
0.633430
0.615840
0.597260
0.577710
0.558160
0.535680
0.517110
0.503420
0.488760
0.472140
0.458460
0.449660
0.441840
0.433040
0.424240
0.418380
0.415440
0.412510
0.410560
0.408600
0.406650
0.403710
0.400780
0.397850
0.394920
0.391010
0.386120
0.382210
0.376340
0.369500
0.363640
0.359730
0.355820
0.349950
0.344090
0.339200
0.333330
0.326490
0.318670
0.312810
0.308900
0.303030
0.298140
0.294230
0.289350
0.285430
0.280550
0.274680
0.268820
0.261970
0.256110
0.251220
0.250240
0.251220
0.260020
0.281520
0.312810
0.352880
0.400780
0.451610
0.502440
0.549360
0.589440
0.623660
0.651030
0.673510
0.690130
0.701860
0.708700
0.714570
0.718480
0.719450
0.719450
0.716520
0.712610
0.706740
0.698920
0.691100
0.680350
0.670580
0.658850
0.646140
0.631480
0.613880
0.596290
0.575760
0.556210
0.535680
0.515150
0.496580
0.479960
0.465300
0.453570
0.444770
0.436950
0.431090
0.425220
0.421310
0.418380
0.415440
0.412510
0.410560
0.407620
0.404690
0.402740
0.400780
0.397850
0.393940
0.390030
0.386120
0.381230
0.376340
0.370480
0.365590
0.359730
0.353860
0.348970
0.344090
0.340180
0.335290
0.330400
0.324540
0.319650
0.313780
0.308900
0.303030
0.298140
0.294230
0.290320
0.287390
0.284460
0.280550
0.275660
0.269790
0.265880
0.264910
0.270770
0.286410
0.312810
0.350930
0.397850
0.449660
0.496580
0.537630
0.579670
0.617790
0.649070
0.674490
0.695010
0.709680
0.721410
0.728250
0.733140
0.735090
0.733140
0.729230
0.724340
0.718480
0.710650
0.701860
0.691100
0.680350
0.667640
0.654940
0.640270
0.624630
0.607040
0.590420
0.573800
0.555230
0.536660
0.517110
0.498530
0.481920
0.467250
0.453570
0.443790
0.435000
0.428150
0.423260
0.420330
0.417400
0.414470
0.411530
0.408600
0.405670
0.401760
0.398830
0.393940
0.390030
0.384160
0.379280
0.374390
0.369500
0.364610
0.357770
0.351910
0.345060
0.339200
0.333330
0.327470
0.321600
0.315740
0.310850
0.306940
0.304010
0.299120
0.295210
0.290320
0.285430
0.280550
0.275660
0.270770
0.265880
0.260020
0.253180
0.247310
0.244380
0.244380
0.251220
0.266860
0.294230
0.333330
0.382210
0.435970
0.490710
0.542520
0.587490
0.625610
0.652000
0.671550
0.688170
0.700880
0.710650
0.717500
0.721410
0.722390
0.720430
0.717500
0.712610
0.705770
0.696970
0.689150
0.679370
0.669600
0.657870
0.645160
0.631480
0.615840
0.598240
0.580650
0.561090
0.541540
0.521020
0.504400
0.489740
0.475070
0.461390
0.449660
0.438910
0.431090
0.424240
0.418380
0.414470
0.411530
0.408600
0.405670
0.403710
0.401760
0.401760
0.403710
0.402740
0.399800
0.396870
0.392960
0.388070
0.383190
0.377320
0.371460
0.366570
0.362660
0.357770
0.351910
0.346040
0.339200
0.333330
0.328450
0.322580
0.316720
0.311830
0.305960
0.302050
0.299120
0.295210
0.291300
0.287390
0.282500
0.277610
0.271750
0.265880
0.261970
0.261000
0.266860
0.281520
0.303030
0.332360
0.372430
0.421310
0.473120
0.523950
0.570870
0.610950
0.643210
0.669600
0.690130
0.705770
0.715540
0.722390
0.726300
0.729230
0.730210
0.728250
0.724340
0.719450
0.711630
0.703810
0.694040
0.684260
0.672530
0.659820
0.648090
0.633430
0.616810
0.598240
0.579670
0.560120
0.539590
0.520040
0.501470
0.484850
0.470190
0.459430
0.450640
0.442820
0.435970
0.430110
0.426200
0.423260
0.421310
0.419350
0.417400
0.415440
0.413490
0.410560
0.408600
0.406650
0.402740
0.398830
0.394920
0.390030
0.384160
0.378300
0.373410
0.367550
0.361680
0.355820
0.350930
0.347020
0.342130
0.336270
0.331380
0.326490
0.320630
0.315740
0.309870
0.304990
0.300100
0.296190
0.291300
0.287390
0.284460
0.279570
0.273700
0.268820
0.267840
0.272730
0.286410
0.310850
0.347020
0.391010
0.440860
0.484850
0.524930
0.566960
0.604110
0.636360
0.662760
0.684260
0.699900
0.712610
0.721410
0.726300
0.729230
0.729230
0.727270
0.723360
0.717500
0.711630
0.703810
0.695010
0.685240
0.673510
0.661780
0.648090
0.632450
0.615840
0.599220
0.583580
0.565000
0.546430
0.527860
0.509290
0.493650
0.478980
0.466280
0.456500
0.448680
0.441840
0.436950
0.434020
0.432060
0.429130
0.427170
0.425220
0.423260
0.421310
0.418380
0.414470
0.411530
0.406650
0.402740
0.398830
0.394920
0.390030
0.384160
0.378300
0.372430
0.366570
0.360700
0.353860
0.348000
0.342130
0.336270
0.330400
0.326490
0.322580
0.317690
0.312810
0.307920
0.304010
0.299120
0.295210
0.290320
0.285430
0.279570
0.273700
0.270770
0.271750
0.276640
0.290320
0.314760
0.348970
0.391980
0.440860
0.491690
0.539590
0.583580
0.620720
0.651030
0.672530
0.688170
0.700880
0.711630
0.720430
0.725320
0.728250
0.729230
0.727270
0.724340
0.719450
0.712610
0.705770
0.696970
0.688170
0.677420
0.665690
0.652980
0.637340
0.620720
0.603130
0.584560
0.565000
0.545450
0.528840
0.514170
0.499510
0.485830
0.474100
0.464320
0.456500
0.449660
0.444770
0.441840
0.438910
0.436950
0.435000
0.434020
0.432060
0.430110
0.428150
0.425220
0.421310
0.417400
0.412510
0.407620
0.402740
0.397850
0.391980
0.387100
0.382210
0.377320
0.371460
0.366570
0.360700
0.354840
0.349950
0.345060
0.340180
0.335290
0.330400
0.325510
0.322580
0.319650
0.315740
0.311830
0.306940
0.301080
0.295210
0.289350
0.286410
0.289350
0.301080
0.324540
0.352880
0.389050
0.435970
0.488760
0.542520
0.592380
0.635390
0.670580
0.698920
0.720430
0.736070
0.746820
0.754640
0.757580
0.757580
0.756600
0.753670
0.748780
0.742910
0.736070
0.727270
0.718480
0.707720
0.695990
0.683280
0.670580
0.656890
0.641250
0.623660
0.604110
0.583580
0.562070
0.540570
0.521020
0.501470
0.484850
0.470190
0.457480
0.447700
0.440860
0.435000
0.430110
0.425220
0.421310
0.417400
0.414470
0.410560
0.407620
0.403710
0.398830
0.395890
0.391980
0.388070
0.383190
0.377320
0.371460
0.365590
0.359730
0.353860
0.347020
0.341150
0.335290
0.329420
0.325510
0.321600
0.317690
0.312810
0.307920
0.303030
0.298140
0.293260
0.288370
0.284460
0.280550
0.276640
0.273700
0.270770
0.266860
0.261970
0.258060
0.257090
0.262950
0.278590
0.304990
0.343110
0.391010
0.444770
0.498530
0.544480
0.582600
0.619750
0.652000
0.678400
0.698920
0.715540
0.727270
0.735090
0.739980
0.741940
0.741940
0.739000
0.734120
0.729230
0.722390
0.714570
0.705770
0.695990
0.684260
0.672530
0.657870
0.642230
0.625610
0.607040
0.589440
0.571850
0.553270
0.533720
0.515150
0.498530
0.483870
0.470190
0.459430
0.450640
0.443790
0.437930
0.434020
0.431090
0.428150
0.426200
0.423260
0.421310
0.418380
0.415440
0.412510
0.408600
0.404690
0.400780
0.395890
0.391980
0.388070
0.382210
0.377320
0.370480
0.364610
0.357770
0.351910
0.346040
0.339200
0.333330
0.327470
0.322580
0.318670
0.313780
0.308900
0.304010
0.299120
0.294230
0.289350
0.284460
0.278590
0.272730
0.265880
0.261970
0.261000
0.264910
0.277610
0.300100
0.334310
0.378300
0.428150
0.481920
0.533720
0.581620
0.622680
0.655910
0.680350
0.697950
0.712610
0.725320
0.735090
0.741940
0.745850
0.746820
0.745850
0.742910
0.738030
0.731180
0.723360
0.714570
0.704790
0.694040
0.681330
0.667640
0.652000
0.635390
0.616810
0.597260
0.576740
0.556210
0.535680
0.518080
0.503420
0.488760
0.476050
0.464320
0.454550
0.445750
0.439880
0.435000
0.431090
0.428150
0.425220
0.423260
0.421310
0.419350
0.416420
0.413490
0.409580
0.405670
0.401760
0.395890
0.391010
0.385140
0.379280
0.373410
0.368520
0.364610
0.358750
0.351910
0.345060
0.338220
0.331380
0.325510
0.320630
0.314760
0.308900
0.304010
0.301080
0.298140
0.294230
0.290320
0.285430
0.280550
0.274680
0.268820
0.264910
0.263930
0.269790
0.285430
0.310850
0.341150
0.377320
0.422290
0.473120
0.522970
0.568910
0.609970
0.644180
0.671550
0.693060
0.709680
0.722390
0.729230
0.733140
0.736070
0.737050
0.736070
0.733140
0.728250
0.721410
0.714570
0.705770
0.695010
0.684260
0.670580
0.657870
0.644180
0.628540
0.609970
0.591400
0.570870
0.550340
0.530790
0.512220
0.494620
0.479960
0.467250
0.457480
0.450640
0.443790
0.438910
0.434020
0.431090
0.428150
0.425220
0.422290
0.420330
0.417400
0.414470
0.411530
0.408600
0.405670
0.401760
0.397850
0.391980
0.387100
0.381230
0.375370
0.369500
0.363640
0.356790
0.350930
0.346040
0.342130
0.337240
0.332360
0.326490
0.321600
0.316720
0.310850
0.306940
0.302050
0.298140
0.294230
0.289350
0.285430
0.281520
0.277610
0.273700
0.274680
0.282500
0.301080
0.332360
0.373410
0.423260
0.477030
0.531770
0.575760
0.611930
0.646140
0.676440
0.700880
0.719450
0.734120
0.743890
0.750730
0.754640
0.755620
0.753670
0.750730
0.744870
0.738030
0.730210
0.721410
0.711630
0.699900
0.688170
0.675460
0.660800
0.644180
0.626590
0.607040
0.588470
0.571850
0.552300
0.532750
0.515150
0.497560
0.482890
0.471160
0.460410
0.452590
0.445750
0.440860
0.436950
0.434020
0.431090
0.429130
0.426200
0.423260
0.420330
0.416420
0.412510
0.407620
0.401760
0.395890
0.390030
0.384160
0.379280
0.372430
0.365590
0.357770
0.350930
0.344090
0.337240
0.331380
0.324540
0.318670
0.312810
0.307920
0.303030
0.299120
0.295210
0.290320
0.284460
0.279570
0.274680
0.268820
0.261970
0.255130
0.248290
0.245360
0.247310
0.256110
0.275660
0.306940
0.349950
0.402740
0.458460
0.515150
0.566960
0.611930
0.649070
0.678400
0.698920
0.712610
0.724340
0.734120
0.739980
0.743890
0.744870
0.742910
0.739000
0.734120
0.726300
0.718480
0.708700
0.697950
0.688170
0.675460
0.662760
0.648090
0.631480
0.612900
0.593350
0.572830
0.551320
0.530790
0.511240
0.495600
0.481920
0.469210
0.456500
0.446730
0.438910
0.432060
0.426200
0.421310
0.418380
0.415440
0.412510
0.409580
0.406650
0.404690
0.401760
0.398830
0.394920
0.391010
0.386120
0.381230
0.376340
0.370480
0.364610
0.358750
0.354840
0.350930
0.346040
0.340180
0.334310
0.329420
0.323560
0.317690
0.311830
0.306940
0.303030
0.301080
0.297170
0.295210
0.292280
0.289350
0.284460
0.279570
0.273700
0.267840
0.262950
0.263930
0.272730
0.291300
0.320630
0.354840
0.392960
0.439880
0.490710
0.539590
0.584560
0.622680
0.653960
0.679370
0.697950
0.712610
0.723360
0.731180
0.734120
0.734120
0.733140
0.730210
0.726300
0.719450
0.712610
0.703810
0.693060
0.682310
0.670580
0.656890
0.643210
0.629520
0.612900
0.595310
0.575760
0.555230
0.534700
0.515150
0.497560
0.480940
0.467250
0.455520
0.445750
0.438910
0.434020
0.430110
0.427170
0.425220
0.423260
0.421310
0.419350
0.416420
0.414470
0.411530
0.407620
0.405670
0.402740
0.398830
0.393940
0.389050
0.384160
0.378300
0.372430
0.366570
0.360700
0.354840
0.348970
0.343110
0.338220
0.334310
0.329420
0.323560
0.318670
0.312810
0.307920
0.303030
0.298140
0.293260
0.288370
0.283480
0.279570
0.275660
0.270770
0.266860
0.267840
0.274680
0.291300
0.318670
0.356790
0.403710
0.454550
0.505380
0.553270
0.591400
0.621700
0.649070
0.672530
0.692080
0.707720
0.719450
0.727270
0.733140
0.735090
0.735090
0.732160
0.728250
0.722390
0.714570
0.706740
0.696970
0.687190
0.675460
0.661780
0.647120
0.630500
0.612900
0.593350
0.572830
0.554250
0.537630
0.519060
0.501470
0.485830
0.471160
0.459430
0.449660
0.441840
0.435970
0.432060
0.428150
0.426200
0.425220
0.423260
0.422290
0.420330
0.417400
0.415440
0.412510
0.408600
0.404690
0.400780
0.394920
0.391010
0.387100
0.381230
0.376340
0.369500
0.363640
0.356790
0.350930
0.345060
0.339200
0.332360
0.326490
0.321600
0.316720
0.313780
0.308900
0.304990
0.300100
0.296190
0.291300
0.286410
0.281520
0.275660
0.269790
0.266860
0.268820
0.276640
0.293260
0.319650
0.356790
0.402740
0.452590
0.504400
0.553270
0.596290
0.633430
0.663730
0.687190
0.703810
0.714570
0.724340
0.732160
0.737050
0.739980
0.739980
0.738030
0.734120
0.727270
0.720430
0.711630
0.701860
0.692080
0.680350
0.667640
0.652980
0.636360
0.618770
0.599220
0.579670
0.559140
0.539590
0.520040
0.503420
0.489740
0.478010
0.468230
0.459430
0.452590
0.447700
0.443790
0.440860
0.437930
0.435970
0.434020
0.432060
0.430110
0.428150
0.425220
0.422290
0.418380
0.414470
0.409580
0.404690
0.398830
0.392960
0.387100
0.380250
0.374390
0.369500
0.364610
0.359730
0.354840
0.348970
0.344090
0.339200
0.334310
0.329420
0.324540
0.320630
0.315740
0.312810
0.310850
0.306940
0.303030
0.295210
0.286410
0.279570
0.276640
0.279570
0.293260
0.318670
0.355820
0.403710
0.449660
0.495600
0.545450
0.593350
0.635390
0.671550
0.698920
0.720430
0.737050
0.747800
0.754640
0.757580
0.757580
0.754640
0.750730
0.744870
0.738030
0.730210
0.720430
0.709680
0.698920
0.686220
0.673510
0.658850
0.642230
0.626590
0.609970
0.591400
0.570870
0.549360
0.526880
0.506350
0.486800
0.469210
0.453570
0.440860
0.431090
0.424240
0.418380
0.414470
0.411530
0.408600
0.405670
0.403710
0.400780
0.397850
0.394920
0.391010
0.387100
0.383190
0.379280
0.376340
0.371460
0.365590
0.359730
0.353860
0.347020
0.341150
0.334310
0.328450
0.322580
0.316720
0.312810
0.308900
0.304990
0.300100
0.294230
0.289350
0.284460
0.279570
0.275660
0.270770
0.266860
0.262950
0.257090
0.253180
0.250240
0.246330
0.245360
0.251220
0.265880
0.291300
0.329420
0.376340
0.430110
0.485830
0.538610
0.580650
0.613880
0.645160
0.671550
0.693060
0.708700
0.721410
0.730210
0.735090
0.738030
0.738030
0.736070
0.732160
0.726300
0.719450
0.710650
0.701860
0.691100
0.680350
0.666670
0.652000
0.636360
0.617790
0.598240
0.577710
0.559140
0.541540
0.522970
0.504400
0.486800
0.471160
0.458460
0.447700
0.438910
0.432060
0.427170
0.423260
0.420330
0.418380
0.416420
0.414470
0.412510
0.410560
0.407620
0.404690
0.401760
0.397850
0.393940
0.390030
0.385140
0.380250
0.377320
0.372430
0.366570
0.360700
0.354840
0.348970
0.343110
0.337240
0.331380
0.326490
0.320630
0.316720
0.313780
0.309870
0.305960
0.301080
0.297170
0.293260
0.288370
0.283480
0.278590
0.272730
0.267840
0.266860
0.270770
0.280550
0.300100
0.331380
0.371460
0.419350
0.470190
0.521020
0.567940
0.609970
0.645160
0.673510
0.694040
0.707720
0.720430
0.731180
0.738030
0.742910
0.744870
0.743890
0.740960
0.736070
0.729230
0.720430
0.711630
0.701860
0.691100
0.679370
0.665690
0.650050
0.633430
0.615840
0.596290
0.576740
0.556210
0.535680
0.517110
0.501470
0.488760
0.477030
0.466280
0.457480
0.449660
0.444770
0.439880
0.436950
0.434020
0.432060
0.430110
0.427170
0.425220
0.423260
0.420330
0.417400
0.413490
0.409580
0.404690
0.399800
0.393940
0.389050
0.383190
0.376340
0.371460
0.367550
0.361680
0.355820
0.349950
0.344090
0.338220
0.331380
0.325510
0.319650
0.314760
0.309870
0.304990
0.301080
0.299120
0.295210
0.291300
0.286410
0.280550
0.275660
0.272730
0.273700
0.282500
0.302050
0.332360
0.363640
0.398830
0.442820
0.488760
0.534700
0.575760
0.611930
0.642230
0.665690
0.685240
0.699900
0.710650
0.717500
0.721410
0.722390
0.721410
0.719450
0.715540
0.709680
0.702830
0.695010
0.685240
0.675460
0.663730
0.650050
0.637340
0.623660
0.608020
0.589440
0.570870
0.551320
0.531770
0.513200
0.495600
0.479960
0.467250
0.455520
0.446730
0.439880
0.435970
0.432060
0.428150
0.426200
0.423260
0.421310
0.419350
0.417400
0.414470
0.411530
0.408600
0.405670
0.402740
0.398830
0.394920
0.389050
0.384160
0.378300
0.372430
0.366570
0.360700
0.354840
0.348970
0.343110
0.338220
0.335290
0.330400
0.325510
0.320630
0.315740
0.310850
0.305960
0.302050
0.298140
0.295210
0.290320
0.287390
0.284460
0.280550
0.276640
0.276640
0.283480
0.299120
0.324540
0.361680
0.406650
0.456500
0.507330
0.550340
0.586510
0.621700
0.652000
0.677420
0.696970
0.712610
0.724340
0.732160
0.736070
0.738030
0.737050
0.734120
0.729230
0.722390
0.714570
0.705770
0.695990
0.684260
0.672530
0.659820
0.646140
0.630500
0.612900
0.595310
0.577710
0.562070
0.544480
0.526880
0.509290
0.493650
0.480940
0.469210
0.459430
0.452590
0.446730
0.441840
0.437930
0.435000
0.433040
0.431090
0.428150
0.425220
0.422290
0.418380
0.414470
0.410560
0.405670
0.399800
0.393940
0.389050
0.384160
0.378300
0.371460
0.363640
0.355820
0.348970
0.341150
0.334310
0.327470
0.321600
0.315740
0.309870
0.304990
0.302050
0.297170
0.292280
0.287390
0.282500
0.277610
0.272730
0.266860
0.260020
0.253180
0.247310
0.245360
0.248290
0.259040
0.279570
0.311830
0.354840
0.406650
0.461390
0.515150
0.565000
0.607040
0.642230
0.670580
0.689150
0.702830
0.713590
0.722390
0.728250
0.730210
0.730210
0.727270
0.723360
0.716520
0.708700
0.698920
0.690130
0.680350
0.669600
0.656890
0.643210
0.628540
0.611930
0.594330
0.575760
0.556210
0.535680
0.516130
0.497560
0.481920
0.469210
0.457480
0.446730
0.437930
0.431090
0.426200
0.422290
0.419350
0.417400
0.415440
0.414470
0.412510
0.411530
0.409580
0.406650
0.403710
0.399800
0.395890
0.391010
0.386120
0.381230
0.375370
0.369500
0.363640
0.358750
0.353860
0.348970
0.343110
0.337240
0.331380
0.325510
0.319650
0.313780
0.307920
0.302050
0.297170
0.293260
0.290320
0.287390
0.283480
0.278590
0.273700
0.267840
0.262950
0.259040
0.259040
0.266860
0.283480
0.311830
0.344090
0.381230
0.427170
0.477030
0.528840
0.576740
0.617790
0.650050
0.675460
0.695990
0.710650
0.720430
0.726300
0.729230
0.730210
0.729230
0.726300
0.722390
0.716520
0.709680
0.700880
0.691100
0.681330
0.669600
0.655910
0.643210
0.629520
0.612900
0.595310
0.576740
0.557180
0.537630
0.519060
0.502440
0.486800
0.473120
0.462370
0.453570
0.447700
0.441840
0.437930
0.434020
0.431090
0.428150
0.426200
0.424240
0.421310
0.418380
0.415440
0.411530
0.408600
0.405670
0.400780
0.396870
0.391010
0.386120
0.380250
0.374390
0.368520
0.362660
0.356790
0.350930
0.346040
0.342130
0.337240
0.332360
0.327470
0.322580
0.316720
0.311830
0.306940
0.303030
0.299120
0.294230
0.291300
0.289350
0.284460
0.279570
0.274680
0.273700
0.277610
0.290320
0.312810
0.346040
0.389050
0.436950
0.487780
0.530790
0.567940
0.605080
0.637340
0.664710
0.687190
0.704790
0.718480
0.728250
0.735090
0.738030
0.739000
0.737050
0.733140
0.727270
0.720430
0.712610
0.703810
0.693060
0.681330
0.668620
0.653960
0.638320
0.620720
0.602150
0.585530
0.567940
0.550340
0.531770
0.513200
0.497560
0.482890
0.470190
0.460410
0.452590
0.445750
0.441840
0.438910
0.435970
0.435000
0.433040
0.431090
0.429130
0.427170
0.424240
0.421310
0.417400
0.413490
0.408600
0.403710
0.398830
0.394920
0.390030
0.384160
0.378300
0.372430
0.366570
0.360700
0.354840
0.348970
0.343110
0.337240
0.332360
0.329420
0.324540
0.319650
0.315740
0.310850
0.306940
0.303030
0.299120
0.294230
0.288370
0.283480
0.278590
0.277610
0.281520
0.292280
0.311830
0.341150
0.381230
0.427170
0.477030
0.526880
0.572830
0.612900
0.647120
0.671550
0.689150
0.704790
0.717500
0.727270
0.734120
0.738030
0.739000
0.738030
0.735090
0.731180
0.725320
0.717500
0.709680
0.700880
0.690130
0.678400
0.665690
0.651030
0.634410
0.616810
0.597260
0.577710
0.558160
0.538610
0.522970
0.508310
0.494620
0.482890
0.472140
0.463340
0.456500
0.451610
0.446730
0.443790
0.441840
0.438910
0.436950
0.435000
0.434020
0.431090
0.428150
0.425220
0.421310
0.417400
0.412510
0.407620
0.402740
0.396870
0.391980
0.387100
0.383190
0.378300
0.373410
0.368520
0.362660
0.357770
0.352880
0.348970
0.344090
0.340180
0.335290
0.331380
0.327470
0.325510
0.321600
0.317690
0.312810
0.307920
0.301080
0.296190
0.294230
0.299120
0.312810
0.337240
0.367550
0.403710
0.449660
0.501470
0.552300
0.600200
0.641250
0.674490
0.699900
0.720430
0.735090
0.743890
0.749760
0.750730
0.749760
0.747800
0.743890
0.738030
0.731180
0.722390
0.713590
0.702830
0.692080
0.679370
0.666670
0.652980
0.639300
0.622680
0.605080
0.584560
0.564030
0.543500
0.521990
0.502440
0.483870
0.467250
0.452590
0.439880
0.431090
0.425220
0.419350
0.414470
0.410560
0.406650
0.403710
0.400780
0.397850
0.394920
0.391010
0.387100
0.384160
0.380250
0.376340
0.371460
0.365590
0.360700
0.354840
0.348000
0.342130
0.336270
0.330400
0.324540
0.320630
0.317690
0.312810
0.307920
0.304010
0.299120
0.294230
0.289350
0.284460
0.279570
0.275660
0.270770
0.266860
0.263930
0.261000
0.257090
0.251220
0.246330
0.245360
0.250240
0.263930
0.290320
0.327470
0.374390
0.427170
0.475070
0.519060
0.563050
0.604110
0.639300
0.667640
0.690130
0.707720
0.720430
0.730210
0.736070
0.738030
0.738030
0.735090
0.730210
0.724340
0.716520
0.706740
0.696970
0.685240
0.673510
0.659820
0.644180
0.627570
0.609970
0.592380
0.574780
0.556210
0.535680
0.516130
0.496580
0.478980
0.463340
0.450640
0.439880
0.431090
0.424240
0.418380
0.415440
0.413490
0.410560
0.408600
0.406650
0.404690
0.402740
0.399800
0.396870
0.392960
0.389050
0.384160
0.381230
0.377320
0.372430
0.367550
0.362660
0.356790
0.350930
0.345060
0.339200
0.333330
0.327470
0.322580
0.316720
0.312810
0.308900
0.304010
0.299120
0.294230
0.289350
0.285430
0.280550
0.275660
0.270770
0.264910
0.259040
0.255130
0.253180
0.254150
0.261970
0.279570
0.307920
0.348000
0.395890
0.447700
0.500490
0.550340
0.594330
0.631480
0.658850
0.678400
0.695990
0.710650
0.721410
0.729230
0.734120
0.736070
0.735090
0.732160
0.727270
0.720430
0.712610
0.703810
0.695010
0.684260
0.672530
0.658850
0.644180
0.627570
0.608990
0.590420
0.569890
0.549360
0.528840
0.512220
0.496580
0.481920
0.468230
0.456500
0.446730
0.438910
0.433040
0.429130
0.425220
0.422290
0.420330
0.418380
0.416420
0.414470
0.412510
0.409580
0.405670
0.401760
0.396870
0.391980
0.387100
0.381230
0.375370
0.369500
0.364610
0.360700
0.354840
0.348970
0.343110
0.336270
0.330400
0.323560
0.317690
0.311830
0.305960
0.301080
0.296190
0.293260
0.289350
0.285430
0.281520
0.276640
0.271750
0.265880
0.260020
0.256110
0.256110
0.263930
0.281520
0.304010
0.334310
0.375370
0.424240
0.476050
0.526880
0.572830
0.612900
0.647120
0.673510
0.695010
0.711630
0.721410
0.728250
0.733140
0.736070
0.737050
0.734120
0.729230
0.722390
0.714570
0.705770
0.695990
0.685240
0.673510
0.661780
0.648090
0.632450
0.615840
0.597260
0.577710
0.557180
0.537630
0.518080
0.500490
0.484850
0.471160
0.461390
0.452590
0.445750
0.439880
0.435000
0.432060
0.429130
0.427170
0.424240
0.422290
0.420330
0.417400
0.415440
0.413490
0.410560
0.406650
0.402740
0.397850
0.392960
0.387100
0.381230
0.375370
0.369500
0.363640
0.357770
0.352880
0.348000
0.343110
0.338220
0.333330
0.327470
0.322580
0.317690
0.312810
0.308900
0.304010
0.300100
0.298140
0.296190
0.292280
0.287390
0.281520
0.277610
0.277610
0.284460
0.300100
0.327470
0.365590
0.411530
0.463340
0.509290
0.550340
0.592380
0.629520
0.661780
0.687190
0.707720
0.722390
0.734120
0.740960
0.745850
0.746820
0.745850
0.741940
0.737050
0.730210
0.722390
0.713590
0.703810
0.693060
0.681330
0.667640
0.653960
0.638320
0.620720
0.604110
0.588470
0.569890
0.551320
0.531770
0.514170
0.497560
0.482890
0.470190
0.460410
0.451610
0.445750
0.440860
0.437930
0.435000
0.432060
0.429130
0.427170
0.424240
0.421310
0.417400
0.413490
0.409580
0.404690
0.398830
0.393940
0.389050
0.383190
0.377320
0.369500
0.362660
0.354840
0.348000
0.341150
0.334310
0.327470
0.321600
0.316720
0.312810
0.308900
0.303030
0.298140
0.293260
0.287390
0.282500
0.277610
0.271750
0.265880
0.260020
0.252200
0.248290
0.246330
0.249270
0.260020
0.282500
0.316720
0.361680
0.414470
0.470190
0.525900
0.575760
0.617790
0.649070
0.671550
0.690130
0.705770
0.718480
0.726300
0.732160
0.734120
0.734120
0.732160
0.727270
0.721410
0.713590
0.704790
0.695990
0.686220
0.674490
0.661780
0.648090
0.633430
0.616810
0.598240
0.579670
0.559140
0.538610
0.521020
0.505380
0.488760
0.474100
0.460410
0.448680
0.438910
0.431090
0.425220
0.420330
0.416420
0.413490
0.410560
0.408600
0.407620
0.405670
0.403710
0.400780
0.397850
0.393940
0.390030
0.386120
0.381230
0.376340
0.370480
0.366570
0.362660
0.356790
0.351910
0.346040
0.340180
0.334310
0.328450
0.323560
0.317690
0.311830
0.306940
0.301080
0.297170
0.294230
0.291300
0.287390
0.282500
0.278590
0.272730
0.266860
0.260020
0.256110
0.257090
0.264910
0.279570
0.301080
0.335290
0.380250
0.430110
0.482890
0.533720
0.579670
0.618770
0.651030
0.676440
0.695990
0.708700
0.717500
0.724340
0.728250
0.730210
0.730210
0.727270
0.723360
0.717500
0.709680
0.700880
0.691100
0.680350
0.670580
0.658850
0.646140
0.630500
0.613880
0.595310
0.576740
0.556210
0.536660
0.518080
0.500490
0.484850
0.472140
0.462370
0.452590
0.444770
0.438910
0.434020
0.430110
0.426200
0.424240
0.421310
0.418380
0.416420
0.413490
0.410560
0.408600
0.404690
0.400780
0.396870
0.391980
0.386120
0.381230
0.375370
0.370480
0.364610
0.358750
0.353860
0.349950
0.345060
0.339200
0.334310
0.328450
0.323560
0.317690
0.312810
0.307920
0.303030
0.298140
0.294230
0.291300
0.289350
0.285430
0.280550
0.274680
0.269790
0.267840
0.271750
0.283480
0.305960
0.339200
0.382210
0.424240
0.466280
0.513200
0.558160
0.600200
0.635390
0.663730
0.687190
0.704790
0.718480
0.728250
0.735090
0.738030
0.739000
0.736070
0.733140
0.727270
0.721410
0.712610
0.703810
0.693060
0.681330
0.668620
0.653960
0.638320
0.622680
0.607040
0.589440
0.569890
0.549360
0.529810
0.511240
0.493650
0.478980
0.466280
0.455520
0.446730
0.439880
0.435000
0.432060
0.429130
0.426200
0.424240
0.422290
0.419350
0.417400
0.414470
0.411530
0.408600
0.404690
0.401760
0.397850
0.393940
0.389050
0.384160
0.379280
0.373410
0.367550
0.361680
0.355820
0.349950
0.344090
0.338220
0.333330
0.329420
0.325510
0.320630
0.314760
0.309870
0.305960
0.301080
0.296190
0.292280
0.287390
0.281520
0.277610
0.273700
0.270770
0.271750
0.277610
0.293260
0.320630
0.357770
0.402740
0.452590
0.504400
0.553270
0.596290
0.629520
0.654940
0.678400
0.697950
0.713590
0.725320
0.734120
0.739000
0.741940
0.741940
0.739980
0.735090
0.729230
0.722390
0.713590
0.703810
0.692080
0.680350
0.666670
0.651030
0.635390
0.616810
0.598240
0.578690
0.559140
0.541540
0.525900
0.509290
0.494620
0.480940
0.469210
0.460410
0.452590
0.446730
0.441840
0.438910
0.435970
0.434020
0.433040
0.431090
0.428150
0.426200
0.423260
0.420330
0.416420
0.412510
0.408600
0.403710
0.397850
0.392960
0.388070
0.384160
0.379280
0.373410
0.367550
0.361680
0.356790
0.350930
0.346040
0.341150
0.336270
0.332360
0.328450
0.325510
0.322580
0.318670
0.315740
0.310850
0.306940
0.301080
0.295210
0.289350
0.285430
0.286410
0.293260
0.306940
0.332360
0.369500
0.416420
0.468230
0.522970
0.573800
0.619750
0.657870
0.688170
0.711630
0.729230
0.739980
0.745850
0.749760
0.751710
0.751710
0.748780
0.743890
0.738030
0.730210
0.721410
0.711630
0.700880
0.690130
0.679370
0.665690
0.652000
0.636360
0.618770
0.598240
0.575760
0.553270
0.531770
0.511240
0.491690
0.474100
0.459430
0.448680
0.437930
0.428150
0.421310
0.414470
0.410560
0.406650
0.403710
0.400780
0.397850
0.394920
0.392960
0.390030
0.387100
0.383190
0.378300
0.373410
0.367550
0.361680
0.355820
0.349950
0.343110
0.337240
0.330400
0.326490
0.322580
0.317690
0.312810
0.307920
0.303030
0.298140
0.293260
0.288370
0.283480
0.278590
0.274680
0.271750
0.269790
0.266860
0.263930
0.259040
0.254150
0.249270
0.245360
0.245360
0.252200
0.268820
0.296190
0.336270
0.377320
0.419350
0.470190
0.521020
0.567940
0.609970
0.644180
0.671550
0.693060
0.708700
0.720430
0.729230
0.732160
0.732160
0.731180
0.728250
0.723360
0.716520
0.708700
0.699900
0.689150
0.678400
0.666670
0.652980
0.638320
0.624630
0.609970
0.592380
0.573800
0.553270
0.533720
0.514170
0.495600
0.478980
0.464320
0.451610
0.441840
0.434020
0.428150
0.423260
0.419350
0.416420
0.413490
0.411530
0.408600
0.406650
0.403710
0.400780
0.397850
0.393940
0.391010
0.388070
0.383190
0.378300
0.373410
0.367550
0.361680
0.355820
0.348970
0.343110
0.337240
0.331380
0.326490
0.322580
0.317690
0.312810
0.307920
0.302050
0.297170
0.292280
0.287390
0.283480
0.278590
0.274680
0.269790
0.265880
0.261970
0.257090
0.253180
0.253180
0.260020
0.275660
0.302050
0.339200
0.385140
0.436950
0.488760
0.532750
0.568910
