-0.498050
-0.498050
-0.498050
-0.384770
-0.218750
-0.103520
-0.070312
-0.054688
-0.048828
-0.044922
-0.039062
-0.035156
-0.035156
-0.029297
-0.025391
-0.029297
-0.025391
-0.029297
-0.025391
-0.025391
-0.025391
-0.029297
-0.035156
-0.035156
-0.039062
-0.039062
-0.054688
-0.064453
-0.074219
-0.089844
-0.093750
-0.099609
-0.089844
-0.083984
-0.048828
-0.009766
0.019531
0.041016
0.050781
0.050781
0.044922
0.031250
0.025391
0.015625
0.009766
0.009766
0.005859
0.005859
0.015625
0.019531
0.031250
0.041016
0.044922
0.044922
0.050781
0.054688
0.054688
0.050781
0.044922
0.044922
0.041016
0.041016
0.035156
0.035156
0.031250
0.031250
0.031250
0.031250
0.031250
0.031250
0.031250
0.025391
0.025391
0.031250
0.019531
0.025391
0.031250
0.044922
0.060547
0.070312
0.070312
0.076172
0.076172
0.064453
0.064453
0.054688
0.050781
0.035156
0.009766
-0.009766
-0.013672
-0.013672
-0.009766
-0.003906
-0.029297
0.294920
1.134800
1.253900
-0.273440
-0.498050
-0.498050
-0.464840
-0.273440
-0.134770
-0.070312
-0.039062
-0.029297
-0.025391
-0.025391
-0.019531
-0.019531
-0.019531
-0.019531
-0.019531
-0.019531
-0.019531
-0.019531
-0.019531
-0.019531
-0.019531
-0.019531
-0.013672
-0.019531
-0.035156
-0.044922
-0.048828
-0.064453
-0.074219
-0.080078
-0.089844
-0.089844
-0.074219
-0.054688
-0.025391
0.015625
0.044922
0.064453
0.070312
0.076172
0.070312
0.064453
0.054688
0.044922
0.041016
0.031250
0.025391
0.025391
0.019531
0.025391
0.031250
0.035156
0.041016
0.050781
0.050781
0.054688
0.060547
0.054688
0.060547
0.054688
0.060547
0.050781
0.050781
0.050781
0.044922
0.050781
0.041016
0.035156
0.031250
0.031250
0.035156
0.031250
0.054688
0.105470
0.125000
0.115230
0.076172
0.054688
0.050781
0.035156
0.019531
0.009766
0.005859
0.000000
0.005859
-0.029297
-0.039062
0.660160
1.259800
0.201170
-0.494140
-0.498050
-0.498050
-0.375000
-0.189450
-0.074219
-0.035156
-0.019531
-0.013672
-0.009766
-0.009766
-0.009766
-0.003906
0.000000
-0.003906
0.000000
-0.013672
-0.019531
-0.013672
-0.009766
-0.009766
-0.009766
-0.003906
-0.003906
-0.013672
-0.013672
-0.029297
-0.044922
-0.054688
-0.064453
-0.064453
-0.070312
-0.064453
-0.048828
-0.013672
0.025391
0.050781
0.070312
0.076172
0.070312
0.060547
0.044922
0.035156
0.031250
0.019531
0.015625
0.005859
0.005859
0.005859
0.025391
0.031250
0.031250
0.041016
0.050781
0.050781
0.050781
0.054688
0.054688
0.054688
0.050781
0.050781
0.050781
0.050781
0.050781
0.044922
0.044922
0.035156
0.041016
0.041016
0.044922
0.041016
0.041016
0.044922
0.041016
0.031250
0.031250
0.031250
0.031250
0.031250
0.031250
0.031250
0.035156
0.050781
0.070312
0.076172
0.076172
0.076172
0.085938
0.070312
0.060547
0.050781
0.041016
0.025391
0.000000
-0.003906
-0.009766
-0.003906
-0.009766
-0.019531
0.060547
0.650390
1.119100
0.111330
-0.498050
-0.498050
-0.498050
-0.394530
-0.240230
-0.119140
-0.070312
-0.048828
-0.044922
-0.039062
-0.035156
-0.035156
-0.035156
-0.035156
-0.035156
-0.035156
-0.029297
-0.029297
-0.025391
-0.019531
-0.025391
-0.025391
-0.025391
-0.029297
-0.035156
-0.039062
-0.044922
-0.064453
-0.074219
-0.089844
-0.099609
-0.115230
-0.109380
-0.099609
-0.074219
-0.039062
0.000000
0.035156
0.050781
0.054688
0.050781
0.041016
0.035156
0.035156
0.031250
0.031250
0.035156
0.041016
0.044922
0.054688
0.064453
0.070312
0.076172
0.076172
0.076172
0.076172
0.070312
0.064453
0.054688
0.050781
0.050781
0.044922
0.044922
0.044922
0.035156
0.035156
0.035156
0.031250
0.031250
0.031250
0.025391
0.031250
0.031250
0.019531
0.019531
0.025391
0.041016
0.054688
0.064453
0.070312
0.076172
0.080078
0.060547
0.064453
0.054688
0.050781
0.031250
0.009766
-0.013672
-0.019531
-0.019531
-0.013672
-0.019531
-0.039062
0.246090
1.044900
1.179700
-0.298830
-0.498050
-0.498050
-0.488280
-0.294920
-0.154300
-0.074219
-0.044922
-0.039062
-0.029297
-0.019531
-0.009766
-0.009766
-0.013672
-0.009766
-0.009766
-0.009766
-0.003906
-0.009766
-0.003906
-0.009766
0.000000
0.005859
0.000000
0.000000
-0.003906
-0.019531
-0.025391
-0.044922
-0.054688
-0.064453
-0.074219
-0.074219
-0.080078
-0.048828
-0.013672
0.025391
0.054688
0.076172
0.085938
0.095703
0.080078
0.076172
0.060547
0.054688
0.050781
0.050781
0.050781
0.050781
0.050781
0.060547
0.064453
0.076172
0.076172
0.076172
0.080078
0.085938
0.085938
0.080078
0.076172
0.076172
0.070312
0.064453
0.054688
0.050781
0.050781
0.044922
0.041016
0.041016
0.035156
0.035156
0.031250
0.031250
0.031250
0.031250
0.031250
0.044922
0.060547
0.076172
0.070312
0.076172
0.080078
0.064453
0.076172
0.060547
0.044922
0.031250
0.009766
-0.009766
-0.013672
-0.003906
-0.009766
-0.013672
-0.029297
0.375000
1.134800
1.144500
-0.388670
-0.498050
-0.498050
-0.453120
-0.273440
-0.138670
-0.064453
-0.029297
-0.013672
-0.009766
-0.013672
-0.013672
-0.003906
-0.003906
0.005859
-0.003906
-0.009766
0.000000
0.000000
-0.003906
0.005859
0.005859
0.005859
0.000000
-0.009766
-0.019531
-0.019531
-0.025391
-0.044922
-0.064453
-0.080078
-0.074219
-0.070312
-0.064453
-0.044922
-0.009766
0.025391
0.054688
0.076172
0.070312
0.070312
0.060547
0.044922
0.050781
0.035156
0.025391
0.019531
0.031250
0.015625
0.025391
0.041016
0.050781
0.054688
0.050781
0.060547
0.060547
0.050781
0.054688
0.044922
0.044922
0.044922
0.031250
0.035156
0.041016
0.031250
0.031250
0.019531
0.025391
0.025391
0.015625
0.015625
0.019531
0.015625
0.019531
0.009766
0.015625
0.044922
0.050781
0.060547
0.060547
0.054688
0.064453
0.050781
0.060547
0.031250
0.015625
0.000000
-0.019531
-0.013672
-0.029297
-0.035156
-0.035156
-0.029297
-0.035156
0.619140
1.164100
0.169920
-0.498050
-0.498050
-0.498050
-0.443360
-0.273440
-0.128910
-0.058594
-0.035156
-0.039062
-0.029297
-0.019531
-0.013672
-0.009766
-0.013672
-0.009766
-0.009766
-0.003906
0.005859
-0.003906
0.000000
-0.003906
0.000000
0.005859
0.000000
-0.019531
-0.025391
-0.029297
-0.044922
-0.064453
-0.074219
-0.089844
-0.093750
-0.099609
-0.093750
-0.064453
-0.029297
0.000000
0.031250
0.050781
0.060547
0.044922
0.031250
0.019531
0.009766
0.000000
0.005859
0.035156
0.076172
0.115230
0.099609
0.080078
0.070312
0.076172
0.076172
0.060547
0.050781
0.035156
0.025391
0.015625
0.009766
0.005859
0.005859
-0.013672
-0.044922
0.539060
1.240200
0.294920
-0.488280
-0.498050
-0.498050
-0.353520
-0.173830
-0.083984
-0.048828
-0.035156
-0.035156
-0.029297
-0.025391
-0.019531
-0.019531
-0.019531
-0.019531
-0.019531
-0.019531
-0.019531
-0.019531
-0.019531
-0.019531
-0.019531
-0.019531
-0.029297
-0.035156
-0.035156
-0.044922
-0.054688
-0.058594
-0.058594
-0.064453
-0.058594
-0.035156
-0.003906
0.035156
0.054688
0.070312
0.076172
0.060547
0.050781
0.041016
0.031250
0.019531
0.025391
0.019531
0.031250
0.031250
0.035156
0.044922
0.050781
0.050781
0.050781
0.054688
0.060547
0.054688
0.054688
0.050781
0.044922
0.044922
0.044922
0.044922
0.041016
0.041016
0.035156
0.041016
0.035156
0.035156
0.031250
0.031250
0.031250
0.031250
0.035156
0.035156
0.031250
0.031250
0.031250
0.031250
0.031250
0.031250
0.031250
0.031250
0.031250
0.031250
0.031250
0.031250
0.031250
0.031250
0.031250
0.031250
0.031250
0.025391
0.031250
0.031250
0.031250
0.031250
0.031250
0.031250
0.041016
0.064453
0.080078
0.076172
0.080078
0.099609
0.089844
0.095703
0.076172
0.060547
0.041016
0.015625
-0.003906
-0.009766
-0.009766
-0.003906
-0.019531
-0.035156
0.509770
1.285200
0.529300
-0.398440
-0.498050
-0.498050
-0.404300
-0.234380
-0.119140
-0.058594
-0.044922
-0.029297
-0.019531
-0.013672
-0.013672
-0.013672
-0.013672
-0.013672
-0.009766
-0.013672
-0.003906
-0.003906
0.000000
0.000000
0.000000
0.000000
0.005859
-0.009766
-0.019531
-0.025391
-0.039062
-0.048828
-0.064453
-0.080078
-0.080078
-0.083984
-0.074219
-0.048828
-0.013672
0.025391
0.060547
0.089844
0.099609
0.111330
0.111330
0.099609
0.089844
0.076172
0.070312
0.060547
0.060547
0.060547
0.060547
0.064453
0.076172
0.076172
0.085938
0.089844
0.089844
0.095703
0.089844
0.089844
0.085938
0.089844
0.076172
0.076172
0.076172
0.076172
0.076172
0.070312
0.070312
0.064453
0.064453
0.064453
0.060547
0.054688
0.054688
0.054688
0.050781
0.050781
0.054688
0.080078
0.089844
0.095703
0.089844
0.095703
0.099609
0.080078
0.076172
0.070312
0.050781
0.025391
0.000000
-0.003906
-0.013672
-0.013672
-0.019531
-0.035156
0.054688
0.644530
1.173800
0.080078
-0.498050
-0.498050
-0.498050
-0.388670
-0.218750
-0.109380
-0.054688
-0.039062
-0.035156
-0.025391
-0.019531
-0.019531
-0.019531
-0.013672
-0.019531
-0.013672
-0.003906
-0.019531
-0.009766
0.000000
-0.003906
0.000000
0.000000
-0.009766
-0.009766
-0.013672
-0.019531
-0.044922
-0.070312
-0.080078
-0.089844
-0.089844
-0.089844
-0.080078
-0.048828
-0.009766
0.035156
0.064453
0.070312
0.064453
0.064453
0.060547
0.044922
0.035156
0.031250
0.031250
0.019531
0.025391
0.031250
0.035156
0.044922
0.050781
0.050781
0.070312
0.070312
0.070312
0.076172
0.064453
0.060547
0.050781
0.044922
0.050781
0.044922
0.041016
0.041016
0.041016
0.031250
0.025391
0.031250
0.031250
0.031250
0.025391
0.025391
0.031250
0.050781
0.070312
0.080078
0.064453
0.076172
0.054688
0.054688
0.050781
0.035156
0.009766
-0.013672
-0.019531
-0.025391
-0.035156
-0.025391
-0.019531
-0.044922
0.144530
0.865230
1.128900
-0.279300
-0.498050
-0.498050
-0.498050
-0.394530
-0.240230
-0.115230
-0.064453
-0.054688
-0.044922
-0.035156
-0.039062
-0.035156
-0.025391
-0.019531
-0.019531
-0.025391
-0.019531
-0.025391
-0.019531
-0.025391
-0.003906
-0.013672
-0.013672
-0.019531
-0.044922
-0.039062
-0.029297
-0.044922
-0.070312
-0.083984
-0.093750
-0.103520
-0.089844
-0.070312
-0.044922
-0.009766
0.031250
0.050781
0.050781
0.060547
0.041016
0.025391
0.019531
0.009766
0.015625
0.009766
0.015625
0.031250
0.044922
0.050781
0.054688
0.064453
0.064453
0.064453
0.070312
0.060547
0.050781
0.044922
0.041016
0.035156
0.035156
0.031250
0.025391
0.019531
0.015625
0.009766
0.009766
0.009766
0.009766
0.009766
0.005859
0.005859
0.000000
0.005859
0.000000
0.005859
0.019531
0.035156
0.050781
0.050781
0.050781
0.050781
0.031250
0.031250
0.031250
0.025391
0.005859
-0.019531
-0.044922
-0.044922
-0.039062
-0.039062
-0.044922
-0.058594
0.224610
0.994140
1.179700
-0.294920
-0.498050
-0.498050
-0.498050
-0.339840
-0.183590
-0.093750
-0.070312
-0.058594
-0.048828
-0.044922
-0.039062
-0.035156
-0.035156
-0.029297
-0.029297
-0.039062
-0.035156
-0.035156
-0.029297
-0.035156
-0.035156
-0.029297
-0.029297
-0.029297
-0.039062
-0.044922
-0.054688
-0.064453
-0.083984
-0.089844
-0.099609
-0.103520
-0.099609
-0.080078
-0.048828
-0.013672
0.025391
0.044922
0.050781
0.050781
0.050781
0.041016
0.031250
0.031250
0.025391
0.015625
0.009766
0.015625
0.019531
0.025391
0.031250
0.035156
0.041016
0.050781
0.050781
0.050781
0.050781
0.054688
0.070312
0.076172
0.089844
0.111330
0.095703
0.054688
0.035156
0.025391
0.019531
0.015625
0.009766
0.009766
-0.009766
-0.035156
0.580080
1.289100
0.365230
-0.433590
-0.498050
-0.498050
-0.359380
-0.179690
-0.074219
-0.035156
-0.025391
-0.019531
-0.009766
-0.003906
0.000000
-0.003906
0.000000
0.005859
0.000000
-0.003906
-0.003906
-0.003906
-0.003906
0.000000
-0.003906
0.000000
-0.009766
-0.013672
-0.019531
-0.025391
-0.039062
-0.044922
-0.048828
-0.058594
-0.048828
-0.035156
-0.013672
0.019531
0.050781
0.064453
0.080078
0.076172
0.060547
0.050781
0.041016
0.035156
0.031250
0.025391
0.019531
0.015625
0.019531
0.019531
0.031250
0.035156
0.041016
0.050781
0.050781
0.050781
0.054688
0.050781
0.050781
0.044922
0.050781
0.050781
0.044922
0.041016
0.035156
0.035156
0.031250
0.031250
0.031250
0.025391
0.031250
0.025391
0.019531
0.019531
0.019531
0.015625
0.019531
0.019531
0.019531
0.015625
0.015625
0.009766
0.015625
0.019531
0.015625
0.015625
0.019531
0.019531
0.015625
0.019531
0.019531
0.015625
0.015625
0.019531
0.019531
0.025391
0.035156
0.050781
0.064453
0.064453
0.060547
0.076172
0.060547
0.060547
0.050781
0.041016
0.009766
-0.013672
-0.019531
-0.019531
-0.019531
-0.025391
-0.048828
0.070312
0.759770
1.134800
-0.003906
-0.498050
-0.498050
-0.498050
-0.369140
-0.208980
-0.115230
-0.074219
-0.064453
-0.044922
-0.039062
-0.039062
-0.029297
-0.029297
-0.029297
-0.035156
-0.029297
-0.035156
-0.029297
-0.035156
-0.025391
-0.019531
-0.029297
-0.035156
-0.019531
-0.029297
-0.035156
-0.044922
-0.054688
-0.064453
-0.089844
-0.103520
-0.099609
-0.093750
-0.080078
-0.048828
-0.009766
0.025391
0.054688
0.085938
0.099609
0.095703
0.089844
0.076172
0.070312
0.064453
0.054688
0.050781
0.044922
0.044922
0.050781
0.070312
0.076172
0.070312
0.085938
0.076172
0.076172
0.080078
0.076172
0.076172
0.064453
0.060547
0.064453
0.050781
0.050781
0.054688
0.044922
0.025391
0.031250
0.035156
0.025391
0.041016
0.085938
0.115230
0.130860
0.089844
0.050781
0.041016
0.031250
0.031250
0.015625
0.005859
-0.019531
-0.003906
0.000000
-0.029297
0.291020
1.035200
1.119100
-0.458980
-0.498050
-0.498050
-0.498050
-0.304690
-0.148440
-0.070312
-0.044922
-0.039062
-0.025391
-0.013672
-0.009766
-0.013672
-0.003906
-0.003906
-0.013672
-0.019531
-0.019531
0.005859
0.000000
0.015625
0.000000
-0.019531
-0.013672
-0.003906
0.005859
-0.013672
-0.039062
-0.048828
-0.048828
-0.044922
-0.080078
-0.070312
-0.064453
-0.039062
0.005859
0.031250
0.054688
0.076172
0.054688
0.050781
0.050781
0.025391
0.025391
0.019531
0.009766
0.025391
0.031250
0.035156
0.050781
0.044922
0.070312
0.076172
0.070312
0.076172
0.076172
0.054688
0.060547
0.064453
0.060547
0.060547
0.054688
0.050781
0.044922
0.050781
0.041016
0.031250
0.025391
0.031250
0.031250
0.031250
0.050781
0.060547
0.050781
0.070312
0.095703
0.099609
0.076172
0.035156
0.005859
0.000000
-0.009766
-0.013672
-0.003906
-0.025391
-0.029297
0.615230
1.189500
0.201170
-0.498050
-0.498050
-0.498050
-0.419920
-0.240230
-0.115230
-0.064453
-0.044922
-0.039062
-0.029297
-0.019531
-0.029297
-0.025391
-0.029297
-0.035156
-0.035156
-0.029297
-0.035156
-0.035156
-0.029297
-0.035156
-0.029297
-0.025391
-0.035156
-0.029297
-0.035156
-0.044922
-0.058594
-0.064453
-0.074219
-0.083984
-0.089844
-0.089844
-0.070312
-0.044922
-0.003906
0.025391
0.044922
0.050781
0.050781
0.041016
0.025391
0.009766
0.005859
0.005859
0.000000
0.005859
0.005859
0.015625
0.031250
0.041016
0.050781
0.050781
0.054688
0.050781
0.050781
0.054688
0.050781
0.050781
0.044922
0.041016
0.041016
0.035156
0.035156
0.031250
0.031250
0.019531
0.025391
0.019531
0.019531
0.015625
0.019531
0.019531
0.019531
0.015625
0.019531
0.019531
0.019531
0.015625
0.015625
0.015625
0.015625
0.009766
0.009766
0.015625
0.019531
0.019531
0.015625
0.015625
0.025391
0.031250
0.050781
0.070312
0.076172
0.064453
0.070312
0.076172
0.054688
0.064453
0.060547
0.041016
0.025391
0.000000
-0.003906
-0.003906
0.000000
-0.009766
-0.025391
0.330080
1.160200
1.253900
-0.294920
-0.498050
-0.498050
-0.443360
-0.263670
-0.134770
-0.064453
-0.044922
-0.035156
-0.019531
-0.013672
-0.013672
-0.019531
-0.013672
-0.013672
-0.013672
-0.009766
-0.009766
-0.003906
-0.003906
-0.009766
-0.009766
-0.009766
-0.009766
-0.009766
-0.003906
-0.025391
-0.035156
-0.054688
-0.064453
-0.080078
-0.083984
-0.083984
-0.080078
-0.058594
-0.029297
0.009766
0.050781
0.070312
0.085938
0.095703
0.099609
0.121090
0.111330
0.121090
0.125000
0.099609
0.060547
0.044922
0.041016
0.035156
0.031250
0.041016
0.044922
0.050781
0.050781
0.050781
0.041016
0.615230
1.189500
0.214840
-0.484380
-0.498050
-0.498050
-0.318360
-0.125000
-0.019531
0.009766
0.015625
0.025391
0.031250
0.031250
0.031250
0.031250
0.031250
0.031250
0.031250
0.031250
0.031250
0.025391
0.019531
0.025391
0.019531
0.019531
0.009766
0.005859
0.000000
-0.009766
-0.019531
-0.025391
-0.029297
-0.019531
-0.009766
0.019531
0.050781
0.080078
0.099609
0.099609
0.095703
0.085938
0.076172
0.060547
0.064453
0.054688
0.050781
0.050781
0.050781
0.060547
0.064453
0.070312
0.076172
0.076172
0.070312
0.060547
0.060547
0.050781
0.050781
0.044922
0.041016
0.041016
0.031250
0.031250
0.031250
0.019531
0.015625
0.015625
0.015625
0.005859
0.009766
0.015625
0.009766
0.015625
0.005859
0.009766
0.005859
0.015625
0.009766
0.005859
0.009766
0.009766
0.005859
0.005859
0.009766
0.015625
0.005859
0.009766
0.015625
0.009766
0.009766
0.015625
0.009766
0.015625
0.009766
0.015625
0.025391
0.019531
0.019531
0.041016
0.050781
0.064453
0.070312
0.076172
0.099609
0.085938
0.089844
0.070312
0.050781
0.035156
0.000000
-0.013672
-0.003906
-0.009766
-0.009766
-0.019531
0.099609
0.734380
1.064500
-0.058594
-0.498050
-0.498050
-0.498050
-0.398440
-0.234380
-0.109380
-0.064453
-0.044922
-0.035156
-0.035156
-0.019531
-0.019531
-0.013672
-0.019531
-0.013672
-0.019531
-0.025391
-0.019531
-0.013672
-0.009766
0.000000
0.000000
-0.009766
-0.003906
-0.019531
-0.035156
-0.035156
-0.048828
-0.070312
-0.083984
-0.109380
-0.109380
-0.099609
-0.103520
-0.070312
-0.044922
0.009766
0.050781
0.054688
0.076172
0.080078
0.070312
0.060547
0.050781
0.054688
0.050781
0.076172
0.076172
0.076172
0.099609
0.105470
0.095703
0.105470
0.099609
0.121090
0.099609
0.085938
0.076172
0.076172
0.076172
0.064453
0.054688
0.050781
0.054688
0.041016
0.044922
0.050781
0.035156
0.025391
0.019531
0.031250
0.019531
0.019531
0.031250
0.025391
0.015625
0.019531
0.025391
0.015625
0.015625
0.009766
0.035156
0.054688
0.060547
0.060547
0.054688
0.076172
0.076172
0.064453
0.050781
0.035156
0.019531
-0.003906
-0.025391
-0.029297
-0.029297
-0.025391
-0.029297
-0.044922
0.189450
0.945310
1.144500
-0.285160
-0.498050
-0.498050
-0.498050
-0.349610
-0.205080
-0.099609
-0.064453
-0.054688
-0.044922
-0.039062
-0.039062
-0.039062
-0.035156
-0.035156
-0.035156
-0.029297
-0.035156
-0.029297
-0.035156
-0.029297
-0.029297
-0.025391
-0.019531
-0.029297
-0.035156
-0.039062
-0.044922
-0.064453
-0.080078
-0.089844
-0.099609
-0.115230
-0.115230
-0.099609
-0.070312
-0.035156
0.000000
0.031250
0.035156
0.041016
0.041016
0.031250
0.009766
0.005859
0.005859
0.005859
0.005859
0.009766
0.019531
0.031250
0.031250
0.044922
0.050781
0.050781
0.050781
0.050781
0.050781
0.054688
0.044922
0.041016
0.035156
0.035156
0.031250
0.031250
0.031250
0.031250
0.031250
0.019531
0.015625
0.025391
0.025391
0.019531
0.019531
0.025391
0.019531
0.025391
0.035156
0.050781
0.060547
0.070312
0.064453
0.076172
0.054688
0.050781
0.054688
0.050781
0.041016
0.015625
-0.009766
-0.013672
-0.019531
-0.013672
-0.019531
-0.044922
0.160160
0.949220
1.244100
-0.103520
-0.498050
-0.498050
-0.498050
-0.330080
-0.164060
-0.080078
-0.048828
-0.035156
-0.025391
-0.013672
-0.009766
-0.009766
-0.009766
-0.009766
-0.009766
-0.009766
-0.009766
-0.009766
-0.003906
-0.003906
-0.003906
-0.003906
-0.009766
-0.009766
-0.009766
-0.019531
-0.029297
-0.039062
-0.048828
-0.064453
-0.064453
-0.064453
-0.064453
-0.044922
-0.013672
0.025391
0.050781
0.064453
0.076172
0.080078
0.076172
0.070312
0.064453
0.054688
0.050781
0.041016
0.035156
0.031250
0.031250
0.031250
0.031250
0.031250
0.031250
0.041016
0.041016
0.050781
0.050781
0.050781
0.050781
0.054688
0.050781
0.050781
0.050781
0.050781
0.044922
0.044922
0.050781
0.041016
0.041016
0.041016
0.035156
0.035156
0.035156
0.035156
0.044922
0.064453
0.076172
0.085938
0.076172
0.085938
0.070312
0.076172
0.070312
0.060547
0.044922
0.019531
0.000000
-0.003906
-0.003906
0.000000
-0.009766
-0.029297
0.205080
0.958980
1.199200
-0.228520
-0.498050
-0.498050
-0.498050
-0.314450
-0.160160
-0.080078
-0.048828
-0.035156
-0.025391
-0.019531
-0.019531
-0.013672
-0.013672
-0.009766
-0.013672
-0.009766
-0.013672
-0.009766
-0.009766
-0.013672
-0.009766
-0.003906
-0.003906
-0.003906
-0.009766
-0.013672
-0.025391
-0.039062
-0.048828
-0.058594
-0.058594
-0.064453
-0.058594
-0.039062
-0.009766
0.025391
0.050781
0.070312
0.070312
0.080078
0.085938
0.080078
0.076172
0.099609
0.085938
0.050781
0.031250
0.015625
0.005859
0.005859
0.005859
0.015625
0.009766
0.025391
0.031250
0.009766
0.156250
0.869140
1.144500
-0.208980
-0.498050
-0.498050
-0.498050
-0.250000
-0.093750
-0.019531
0.000000
0.009766
0.009766
0.009766
0.015625
0.031250
0.031250
0.031250
0.035156
0.025391
0.031250
0.019531
0.025391
0.031250
0.035156
0.019531
0.025391
0.009766
0.005859
-0.003906
-0.013672
-0.019531
-0.013672
-0.019531
-0.013672
0.009766
0.035156
0.070312
0.099609
0.105470
0.089844
0.076172
0.070312
0.060547
0.044922
0.041016
0.035156
0.035156
0.050781
0.050781
0.050781
0.060547
0.064453
0.060547
0.064453
0.050781
0.060547
0.064453
0.054688
0.050781
0.044922
0.044922
0.035156
0.031250
0.031250
0.031250
0.019531
0.019531
0.009766
0.009766
0.005859
0.000000
0.005859
0.009766
0.015625
0.005859
0.009766
0.005859
0.000000
0.005859
0.009766
0.005859
-0.003906
0.005859
0.005859
-0.003906
-0.003906
0.005859
0.005859
0.005859
0.000000
0.005859
-0.009766
-0.009766
0.000000
-0.003906
0.005859
0.005859
0.031250
0.050781
0.044922
0.044922
0.070312
0.054688
0.060547
0.050781
0.031250
0.019531
-0.019531
-0.029297
-0.029297
-0.035156
-0.019531
-0.025391
-0.029297
0.300780
1.025400
1.029300
-0.439450
-0.498050
-0.498050
-0.498050
-0.324220
-0.183590
-0.083984
-0.048828
-0.039062
-0.025391
-0.025391
-0.019531
-0.019531
-0.013672
-0.019531
-0.013672
-0.009766
-0.013672
-0.009766
-0.013672
-0.013672
-0.009766
-0.013672
0.000000
-0.009766
-0.013672
-0.029297
-0.044922
-0.058594
-0.083984
-0.093750
-0.103520
-0.115230
-0.103520
-0.093750
-0.064453
-0.025391
0.019531
0.044922
0.054688
0.060547
0.054688
0.050781
0.044922
0.044922
0.041016
0.050781
0.080078
0.111330
0.121090
0.150390
0.169920
0.169920
0.166020
0.166020
0.140620
0.111330
0.064453
0.035156
0.019531
0.009766
0.000000
-0.003906
-0.009766
-0.013672
-0.019531
-0.058594
0.130860
0.919920
1.199200
-0.214840
-0.498050
-0.498050
-0.488280
-0.308590
-0.169920
-0.099609
-0.080078
-0.064453
-0.054688
-0.048828
-0.044922
-0.035156
-0.035156
-0.025391
-0.025391
-0.035156
-0.029297
-0.025391
-0.019531
-0.019531
-0.019531
-0.019531
-0.019531
-0.025391
-0.025391
-0.029297
-0.044922
-0.044922
-0.048828
-0.048828
-0.048828
-0.044922
-0.025391
0.009766
0.041016
0.060547
0.070312
0.070312
0.054688
0.050781
0.041016
0.031250
0.031250
0.015625
0.015625
0.015625
0.005859
0.005859
0.041016
0.089844
0.121090
0.121090
0.121090
0.115230
0.095703
0.070312
0.041016
0.025391
0.009766
0.005859
0.005859
0.000000
-0.003906
-0.003906
-0.035156
-0.048828
0.664060
1.273400
0.210940
-0.484380
-0.498050
-0.498050
-0.343750
-0.173830
-0.083984
-0.054688
-0.039062
-0.025391
-0.019531
-0.013672
-0.009766
-0.009766
-0.013672
-0.009766
-0.009766
-0.003906
-0.003906
-0.003906
-0.003906
0.000000
0.000000
0.000000
0.005859
-0.003906
-0.013672
-0.019531
-0.025391
-0.029297
-0.029297
-0.029297
-0.025391
0.000000
0.031250
0.064453
0.085938
0.095703
0.095703
0.076172
0.064453
0.050781
0.044922
0.035156
0.031250
0.019531
0.025391
0.031250
0.050781
0.076172
0.085938
0.089844
0.099609
0.105470
0.095703
0.099609
0.099609
0.089844
0.060547
0.035156
0.009766
0.005859
0.005859
0.000000
-0.003906
0.000000
-0.009766
-0.048828
0.089844
0.820310
1.138700
-0.109380
-0.498050
-0.498050
-0.498050
-0.314450
-0.154300
-0.070312
-0.039062
-0.019531
-0.009766
-0.009766
-0.003906
0.000000
0.000000
0.000000
0.005859
0.005859
0.005859
0.005859
0.005859
0.005859
0.009766
0.009766
0.009766
0.005859
0.005859
0.000000
-0.013672
-0.019531
-0.025391
-0.025391
-0.019531
-0.009766
0.019531
0.054688
0.080078
0.099609
0.099609
0.099609
0.085938
0.070312
0.050781
0.044922
0.041016
0.031250
0.031250
0.025391
0.025391
0.031250
0.031250
0.035156
0.041016
0.050781
0.054688
0.050781
0.054688
0.054688
0.050781
0.050781
0.044922
0.044922
0.041016
0.041016
0.035156
0.031250
0.031250
0.031250
0.031250
0.025391
0.025391
0.019531
0.019531
0.019531
0.015625
0.019531
0.019531
0.025391
0.035156
0.050781
0.070312
0.076172
0.089844
0.095703
0.089844
0.080078
0.085938
0.070312
0.041016
0.015625
-0.009766
-0.025391
-0.035156
-0.035156
-0.035156
-0.039062
-0.054688
0.419920
1.138700
0.455080
-0.453120
-0.498050
-0.498050
-0.458980
-0.273440
-0.144530
-0.083984
-0.058594
-0.044922
-0.035156
-0.029297
-0.035156
-0.025391
-0.035156
-0.039062
-0.035156
-0.025391
-0.019531
-0.019531
-0.019531
-0.013672
-0.009766
-0.009766
-0.013672
-0.013672
-0.009766
-0.029297
-0.039062
-0.044922
-0.054688
-0.054688
-0.044922
-0.039062
-0.019531
0.015625
0.050781
0.089844
0.099609
0.111330
0.121090
0.105470
0.095703
0.080078
0.076172
0.054688
0.041016
0.044922
0.041016
0.041016
0.050781
0.050781
0.064453
0.070312
0.064453
0.070312
0.060547
0.076172
0.076172
0.070312
0.054688
0.044922
0.050781
0.035156
0.035156
0.041016
0.031250
0.031250
0.031250
0.031250
0.031250
0.060547
0.070312
0.064453
0.089844
0.085938
0.089844
0.085938
0.099609
0.076172
0.050781
0.019531
-0.019531
-0.039062
-0.025391
-0.025391
-0.035156
-0.025391
-0.044922
0.031250
0.619140
1.125000
0.064453
-0.498050
-0.498050
-0.498050
-0.419920
-0.244140
-0.125000
-0.070312
-0.039062
-0.029297
-0.019531
-0.019531
-0.009766
-0.025391
-0.013672
-0.003906
-0.019531
-0.013672
-0.013672
-0.019531
-0.013672
0.000000
0.005859
-0.003906
-0.009766
0.000000
-0.019531
-0.029297
-0.044922
-0.054688
-0.058594
-0.080078
-0.070312
-0.064453
-0.044922
0.000000
0.031250
0.050781
0.076172
0.089844
0.076172
0.054688
0.044922
0.041016
0.031250
0.031250
0.031250
0.031250
0.035156
0.044922
0.050781
0.050781
0.054688
0.070312
0.070312
0.064453
0.054688
0.054688
0.050781
0.050781
0.041016
0.035156
0.031250
0.031250
0.031250
0.025391
0.041016
0.054688
0.054688
0.060547
0.064453
0.076172
0.080078
0.064453
0.054688
0.044922
0.025391
0.000000
-0.025391
-0.035156
-0.035156
-0.035156
-0.039062
-0.035156
-0.058594
-0.070312
0.535160
1.134800
0.169920
-0.498050
-0.498050
-0.498050
-0.443360
-0.263670
-0.138670
-0.083984
-0.064453
-0.048828
-0.044922
-0.039062
-0.039062
-0.035156
-0.029297
-0.035156
-0.025391
-0.029297
-0.029297
-0.035156
-0.025391
-0.019531
-0.019531
-0.019531
-0.025391
-0.025391
-0.029297
-0.044922
-0.054688
-0.064453
-0.064453
-0.064453
-0.064453
-0.058594
-0.035156
0.000000
0.031250
0.054688
0.070312
0.076172
0.064453
0.050781
0.041016
0.031250
0.025391
0.019531
0.015625
0.015625
0.019531
0.025391
0.031250
0.031250
0.035156
0.041016
0.044922
0.050781
0.050781
0.050781
0.044922
0.044922
0.041016
0.035156
0.035156
0.035156
0.035156
0.050781
0.070312
0.095703
0.134770
0.156250
0.140620
0.105470
0.060547
0.019531
-0.003906
-0.013672
-0.013672
-0.019531
-0.019531
-0.019531
-0.019531
-0.039062
-0.054688
0.544920
1.228500
0.339840
-0.474610
-0.498050
-0.498050
-0.404300
-0.218750
-0.103520
-0.058594
-0.044922
-0.035156
-0.019531
-0.019531
-0.013672
-0.013672
-0.009766
-0.009766
-0.013672
-0.003906
-0.003906
0.000000
0.000000
0.000000
0.000000
-0.003906
0.000000
-0.003906
-0.013672
-0.019531
-0.035156
-0.039062
-0.044922
-0.044922
-0.039062
-0.025391
0.000000
0.035156
0.060547
0.085938
0.095703
0.089844
0.085938
0.076172
0.060547
0.050781
0.044922
0.035156
0.031250
0.025391
0.019531
0.025391
0.031250
0.035156
0.044922
0.050781
0.054688
0.060547
0.064453
0.070312
0.070312
0.064453
0.064453
0.064453
0.060547
0.054688
0.050781
0.050781
0.050781
0.044922
0.050781
0.076172
0.085938
0.085938
0.099609
0.105470
0.121090
0.099609
0.095703
0.085938
0.070312
0.044922
0.019531
0.005859
0.000000
0.000000
0.000000
0.000000
-0.013672
-0.029297
0.355470
1.134800
1.144500
-0.384770
-0.498050
-0.498050
-0.443360
-0.259770
-0.125000
-0.048828
-0.029297
-0.019531
-0.003906
0.000000
0.005859
0.005859
0.005859
0.005859
0.005859
0.000000
0.005859
0.005859
0.005859
0.005859
0.009766
0.009766
0.009766
0.005859
0.005859
-0.003906
-0.019531
-0.029297
-0.044922
-0.044922
-0.044922
-0.039062
-0.025391
0.005859
0.044922
0.076172
0.089844
0.095703
0.089844
0.076172
0.070312
0.054688
0.044922
0.035156
0.031250
0.019531
0.025391
0.031250
0.031250
0.041016
0.050781
0.054688
0.060547
0.064453
0.064453
0.060547
0.060547
0.060547
0.054688
0.050781
0.050781
0.050781
0.044922
0.044922
0.050781
0.060547
0.076172
0.085938
0.085938
0.099609
0.111330
0.115230
0.099609
0.085938
0.076172
0.050781
0.031250
0.005859
-0.009766
-0.009766
-0.013672
-0.013672
-0.013672
-0.029297
-0.039062
0.580080
1.144500
0.185550
-0.498050
-0.498050
-0.498050
-0.394530
-0.218750
-0.103520
-0.048828
-0.035156
-0.029297
-0.019531
-0.013672
-0.013672
-0.013672
-0.009766
-0.009766
-0.013672
-0.013672
-0.009766
-0.013672
-0.013672
-0.013672
0.000000
0.000000
0.005859
0.005859
-0.003906
-0.019531
-0.029297
-0.044922
-0.044922
-0.044922
-0.044922
-0.025391
0.000000
0.035156
0.070312
0.099609
0.121090
0.144530
0.160160
0.166020
0.150390
0.160160
0.115230
0.064453
0.035156
0.031250
0.025391
0.031250
0.031250
0.031250
0.044922
0.050781
0.050781
0.050781
0.041016
0.205080
0.914060
1.099600
-0.333980
-0.498050
-0.498050
-0.433590
-0.208980
-0.080078
-0.009766
0.015625
0.025391
0.031250
0.031250
0.019531
0.015625
0.035156
0.044922
0.031250
0.031250
0.031250
0.031250
0.041016
0.031250
0.031250
0.035156
0.025391
0.005859
0.005859
-0.013672
-0.019531
-0.019531
-0.019531
-0.019531
-0.009766
0.025391
0.044922
0.089844
0.105470
0.115230
0.121090
0.095703
0.085938
0.060547
0.050781
0.054688
0.041016
0.050781
0.050781
0.054688
0.050781
0.050781
0.050781
0.060547
0.064453
0.060547
0.050781
0.044922
0.044922
0.035156
0.031250
0.035156
0.031250
0.019531
0.015625
0.015625
0.005859
0.005859
0.005859
0.015625
0.005859
0.000000
-0.003906
0.005859
0.000000
0.009766
0.005859
0.005859
0.009766
0.005859
0.009766
0.005859
0.009766
0.000000
0.005859
0.000000
0.015625
0.005859
0.005859
0.005859
0.019531
0.015625
0.025391
0.005859
0.009766
0.019531
0.025391
0.025391
0.031250
0.035156
0.050781
0.050781
0.076172
0.070312
0.076172
0.054688
0.041016
0.005859
-0.009766
-0.019531
-0.025391
-0.029297
-0.019531
-0.019531
-0.035156
0.234380
0.990230
1.103500
-0.349610
-0.498050
-0.498050
-0.498050
-0.330080
-0.189450
-0.089844
-0.058594
-0.044922
-0.044922
-0.035156
-0.039062
-0.035156
-0.035156
-0.039062
-0.044922
-0.029297
-0.035156
-0.035156
-0.035156
-0.029297
-0.025391
-0.035156
-0.035156
-0.035156
-0.044922
-0.048828
-0.064453
-0.074219
-0.089844
-0.103520
-0.115230
-0.115230
-0.115230
-0.089844
-0.058594
-0.025391
0.015625
0.044922
0.054688
0.060547
0.050781
0.044922
0.041016
0.035156
0.035156
0.041016
0.050781
0.054688
0.064453
0.076172
0.080078
0.085938
0.089844
0.080078
0.080078
0.076172
0.064453
0.060547
0.054688
0.044922
0.035156
0.031250
0.025391
0.019531
0.015625
0.015625
0.019531
0.019531
0.009766
0.009766
0.005859
0.009766
0.005859
0.005859
0.005859
0.005859
0.005859
0.005859
0.005859
0.005859
0.005859
0.005859
0.000000
0.000000
0.005859
0.000000
0.019531
0.041016
0.050781
0.050781
0.054688
0.070312
0.076172
0.076172
0.050781
0.041016
0.031250
0.000000
-0.029297
-0.029297
-0.029297
-0.025391
-0.013672
-0.048828
-0.054688
0.730470
1.205100
0.095703
-0.498050
-0.498050
-0.498050
-0.375000
-0.205080
-0.103520
-0.070312
-0.048828
-0.044922
-0.029297
-0.029297
-0.029297
-0.035156
-0.039062
-0.029297
-0.025391
-0.029297
-0.025391
-0.029297
-0.025391
-0.029297
-0.025391
-0.025391
-0.029297
-0.025391
-0.044922
-0.054688
-0.070312
-0.089844
-0.093750
-0.115230
-0.125000
-0.119140
-0.115230
-0.083984
-0.039062
0.009766
0.044922
0.050781
0.054688
0.070312
0.064453
0.054688
0.064453
0.054688
0.050781
0.060547
0.076172
0.085938
0.089844
0.095703
0.105470
0.085938
0.095703
0.099609
0.099609
0.064453
0.041016
0.019531
0.031250
0.035156
0.025391
0.009766
0.005859
0.005859
-0.035156
-0.058594
0.515620
1.115200
0.144530
-0.458980
-0.498050
-0.498050
-0.330080
-0.169920
-0.058594
-0.013672
-0.003906
-0.009766
-0.003906
0.005859
0.005859
0.005859
0.019531
0.009766
0.019531
0.025391
0.015625
0.025391
0.015625
0.031250
-0.003906
0.000000
0.005859
-0.003906
-0.003906
-0.013672
-0.019531
-0.013672
-0.019531
-0.025391
-0.029297
-0.013672
0.019531
0.044922
0.076172
0.080078
0.076172
0.070312
0.076172
0.044922
0.031250
0.041016
0.025391
0.000000
0.005859
0.005859
0.015625
0.019531
0.035156
0.050781
0.054688
0.044922
0.044922
0.050781
0.054688
0.050781
0.041016
0.035156
0.025391
0.025391
0.019531
0.009766
0.015625
0.031250
0.035156
0.041016
0.031250
0.019531
0.019531
0.031250
0.025391
0.035156
0.019531
0.015625
0.031250
0.019531
0.009766
0.031250
0.044922
0.064453
0.076172
0.085938
0.095703
0.089844
0.064453
0.076172
0.054688
0.041016
0.035156
0.025391
-0.003906
-0.019531
-0.019531
-0.009766
0.000000
-0.013672
0.224610
0.958980
1.134800
-0.314450
-0.498050
-0.498050
-0.498050
-0.343750
-0.199220
-0.099609
-0.054688
-0.029297
-0.013672
-0.003906
-0.019531
-0.019531
-0.009766
0.000000
-0.003906
0.005859
0.005859
0.000000
0.005859
0.005859
0.009766
-0.009766
-0.013672
-0.019531
-0.009766
-0.019531
-0.044922
-0.039062
-0.044922
-0.064453
-0.064453
-0.099609
-0.119140
-0.080078
-0.029297
0.005859
0.041016
0.060547
0.070312
0.076172
0.064453
0.044922
0.031250
0.031250
0.035156
0.031250
0.050781
0.044922
0.070312
0.076172
0.085938
0.121090
0.115230
0.099609
0.054688
0.050781
0.054688
0.054688
0.054688
0.054688
0.050781
0.044922
0.031250
0.019531
0.015625
0.019531
0.015625
0.031250
0.044922
0.050781
0.019531
0.015625
0.019531
0.005859
0.015625
0.019531
0.031250
0.015625
-0.019531
-0.019531
-0.013672
0.019531
0.031250
0.044922
0.031250
0.031250
0.041016
0.031250
0.031250
0.025391
0.035156
0.025391
0.000000
-0.025391
-0.035156
-0.048828
-0.054688
-0.029297
-0.035156
0.410160
1.089800
0.425780
-0.464840
-0.498050
-0.498050
-0.464840
-0.294920
-0.154300
-0.083984
-0.064453
-0.025391
-0.019531
-0.044922
-0.070312
-0.080078
-0.044922
-0.039062
-0.044922
-0.029297
-0.025391
-0.044922
-0.054688
-0.044922
-0.044922
-0.025391
-0.019531
-0.058594
-0.048828
-0.064453
-0.080078
-0.099609
-0.109380
-0.109380
-0.109380
-0.125000
-0.138670
-0.109380
-0.058594
-0.013672
0.005859
0.025391
0.035156
0.031250
0.031250
0.025391
0.005859
0.000000
-0.003906
0.025391
0.044922
0.060547
0.076172
0.115230
0.144530
0.156250
0.105470
0.060547
0.031250
0.031250
0.050781
0.025391
0.000000
-0.003906
0.005859
0.005859
-0.035156
0.105470
0.900390
1.205100
-0.169920
-0.498050
-0.498050
-0.453120
-0.269530
-0.128910
-0.058594
-0.029297
-0.019531
-0.025391
-0.013672
-0.019531
-0.019531
-0.009766
0.000000
0.005859
0.000000
0.009766
-0.003906
-0.009766
-0.009766
-0.009766
-0.009766
-0.013672
-0.003906
-0.009766
-0.019531
-0.029297
-0.048828
-0.044922
-0.044922
-0.039062
-0.035156
0.000000
0.031250
0.060547
0.076172
0.070312
0.064453
0.064453
0.050781
0.050781
0.031250
0.031250
0.035156
0.009766
0.015625
0.031250
0.031250
0.044922
0.054688
0.085938
0.076172
0.054688
0.041016
0.044922
0.050781
0.054688
0.050781
0.054688
0.050781
0.041016
0.035156
0.044922
0.031250
0.025391
0.031250
0.015625
0.015625
0.041016
0.050781
0.005859
0.005859
0.015625
0.015625
0.019531
0.025391
0.015625
0.015625
0.019531
0.009766
0.009766
0.019531
0.025391
0.031250
0.031250
0.035156
0.031250
0.005859
0.000000
0.009766
0.015625
0.031250
0.025391
0.019531
0.031250
0.005859
0.009766
0.015625
0.005859
0.025391
0.050781
0.064453
0.064453
0.080078
0.099609
0.099609
0.099609
0.070312
0.054688
0.050781
0.035156
-0.009766
-0.019531
-0.019531
-0.019531
-0.025391
-0.044922
0.169920
0.955080
1.224600
-0.164060
-0.498050
-0.498050
-0.494140
-0.314450
-0.169920
-0.089844
-0.064453
-0.054688
-0.044922
-0.035156
-0.044922
-0.044922
-0.039062
-0.035156
-0.029297
-0.025391
-0.035156
-0.029297
-0.029297
-0.035156
-0.029297
-0.035156
-0.035156
-0.044922
-0.048828
-0.054688
-0.064453
-0.083984
-0.093750
-0.103520
-0.119140
-0.128910
-0.119140
-0.109380
-0.083984
-0.039062
0.009766
0.035156
0.050781
0.070312
0.095703
0.089844
0.099609
0.089844
0.099609
0.105470
0.064453
0.050781
0.050781
0.050781
0.044922
0.050781
0.060547
0.064453
0.070312
0.064453
0.044922
0.166020
0.849610
1.103500
-0.269530
-0.498050
-0.498050
-0.488280
-0.240230
-0.093750
-0.019531
0.005859
0.009766
0.019531
0.025391
0.025391
0.035156
0.031250
0.025391
0.015625
0.009766
0.015625
0.005859
0.019531
0.015625
0.005859
0.009766
0.015625
0.000000
-0.013672
-0.019531
-0.035156
-0.044922
-0.044922
-0.039062
-0.025391
-0.009766
0.031250
0.064453
0.080078
0.089844
0.095703
0.085938
0.080078
0.076172
0.070312
0.054688
0.041016
0.031250
0.031250
0.044922
0.050781
0.050781
0.050781
0.044922
0.050781
0.035156
0.044922
0.044922
0.035156
0.031250
0.031250
0.009766
0.019531
0.025391
0.015625
0.005859
0.009766
0.005859
0.009766
0.005859
0.009766
0.000000
0.005859
0.000000
0.009766
0.005859
-0.013672
-0.003906
-0.003906
0.000000
-0.009766
-0.003906
-0.013672
0.000000
-0.003906
0.000000
-0.013672
-0.013672
-0.003906
-0.013672
-0.019531
-0.013672
0.005859
-0.009766
-0.009766
0.005859
-0.003906
-0.009766
-0.003906
-0.019531
0.000000
-0.003906
-0.003906
-0.009766
0.005859
0.031250
0.041016
0.044922
0.050781
0.054688
0.076172
0.070312
0.050781
0.044922
0.031250
0.005859
-0.009766
-0.019531
-0.019531
-0.019531
-0.019531
-0.019531
0.064453
0.650390
1.080100
0.076172
-0.498050
-0.498050
-0.498050
-0.429690
-0.269530
-0.128910
-0.074219
-0.054688
-0.039062
-0.025391
-0.029297
-0.035156
-0.035156
-0.025391
-0.019531
-0.029297
-0.025391
-0.025391
-0.019531
-0.025391
-0.029297
-0.025391
-0.025391
-0.039062
-0.044922
-0.054688
-0.064453
-0.089844
-0.099609
-0.119140
-0.138670
-0.144530
-0.154300
-0.154300
-0.128910
-0.093750
-0.054688
-0.019531
0.005859
0.019531
0.031250
0.031250
0.031250
0.031250
0.031250
0.041016
0.050781
0.060547
0.070312
0.076172
0.089844
0.095703
0.099609
0.089844
0.080078
0.080078
0.076172
0.070312
0.064453
0.054688
0.050781
0.044922
0.041016
0.031250
0.031250
0.031250
0.031250
0.031250
0.025391
0.019531
0.019531
0.019531
0.025391
0.019531
0.009766
0.015625
0.015625
0.015625
0.019531
0.009766
0.015625
0.009766
0.015625
0.009766
0.015625
0.044922
0.070312
0.070312
0.064453
0.064453
0.080078
0.064453
0.060547
0.060547
0.050781
0.031250
0.005859
-0.019531
-0.019531
-0.019531
-0.019531
-0.019531
-0.044922
0.210940
1.013700
1.273400
-0.173830
-0.498050
-0.498050
-0.484380
-0.298830
-0.160160
-0.083984
-0.054688
-0.044922
-0.035156
-0.025391
-0.019531
-0.019531
-0.013672
-0.019531
-0.019531
-0.013672
-0.009766
-0.009766
-0.013672
-0.013672
-0.009766
-0.003906
-0.009766
-0.019531
-0.019531
-0.029297
-0.044922
-0.058594
-0.070312
-0.089844
-0.089844
-0.093750
-0.089844
-0.074219
-0.048828
-0.013672
0.019531
0.044922
0.060547
0.076172
0.070312
0.070312
0.060547
0.050781
0.050781
0.041016
0.035156
0.031250
0.031250
0.035156
0.035156
0.044922
0.050781
0.050781
0.060547
0.064453
0.070312
0.064453
0.064453
0.060547
0.060547
0.054688
0.050781
0.054688
0.050781
0.050781
0.044922
0.044922
0.044922
0.044922
0.035156
0.035156
0.031250
0.035156
0.050781
0.070312
0.080078
0.085938
0.080078
0.089844
0.095703
0.076172
0.080078
0.070312
0.050781
0.025391
0.005859
-0.003906
-0.003906
-0.009766
-0.009766
-0.025391
-0.029297
0.675780
1.183600
0.144530
-0.498050
-0.498050
-0.498050
-0.378910
-0.205080
-0.099609
-0.054688
-0.044922
-0.035156
-0.025391
-0.029297
-0.019531
-0.013672
-0.009766
-0.019531
-0.019531
-0.019531
-0.025391
-0.029297
-0.025391
-0.019531
-0.019531
-0.013672
-0.019531
-0.019531
-0.029297
-0.035156
-0.048828
-0.054688
-0.074219
-0.070312
-0.058594
-0.064453
-0.058594
-0.019531
0.025391
0.050781
0.070312
0.076172
0.085938
0.070312
0.064453
0.060547
0.050781
0.041016
0.031250
0.025391
0.044922
0.041016
0.044922
0.050781
0.054688
0.050781
0.050781
0.070312
0.076172
0.076172
0.076172
0.070312
0.060547
0.044922
0.044922
0.050781
0.044922
0.041016
0.031250
0.031250
0.035156
0.025391
0.019531
0.015625
0.025391
0.031250
0.025391
0.015625
0.031250
0.041016
0.044922
0.070312
0.076172
0.060547
0.070312
0.050781
0.044922
0.031250
0.031250
0.019531
0.000000
-0.013672
-0.019531
-0.025391
-0.019531
-0.025391
0.000000
0.335940
1.070300
0.550780
-0.443360
-0.498050
-0.498050
-0.498050
-0.308590
-0.169920
-0.070312
-0.044922
-0.035156
-0.039062
-0.019531
-0.013672
-0.019531
-0.013672
-0.009766
-0.013672
0.000000
-0.019531
-0.009766
0.000000
0.005859
-0.003906
-0.013672
-0.003906
0.000000
-0.003906
0.000000
-0.025391
-0.044922
-0.058594
-0.064453
-0.048828
-0.074219
-0.064453
-0.044922
-0.009766
0.035156
0.054688
0.064453
0.070312
0.076172
0.070312
0.115230
0.130860
0.099609
0.070312
0.054688
0.064453
0.070312
0.060547
0.064453
0.070312
0.050781
0.060547
0.064453
0.050781
0.050781
0.044922
0.019531
0.000000
0.685550
1.089800
-0.058594
-0.498050
-0.498050
-0.494140
-0.279300
-0.125000
-0.039062
-0.019531
-0.009766
-0.003906
-0.003906
0.000000
0.000000
0.000000
0.005859
0.005859
0.005859
0.005859
0.000000
-0.003906
0.000000
0.000000
-0.003906
-0.009766
-0.009766
-0.013672
-0.025391
-0.039062
-0.044922
-0.054688
-0.064453
-0.064453
-0.048828
-0.025391
0.015625
0.041016
0.050781
0.054688
0.041016
0.031250
0.015625
0.005859
0.000000
0.000000
-0.003906
-0.003906
0.035156
0.089844
0.115230
0.115230
0.099609
0.105470
0.085938
0.054688
0.031250
0.015625
0.005859
-0.009766
-0.013672
-0.019531
-0.019531
-0.019531
-0.025391
-0.054688
0.345700
1.160200
1.179700
-0.398440
-0.498050
-0.498050
-0.423830
-0.240230
-0.125000
-0.074219
-0.058594
-0.048828
-0.044922
-0.039062
-0.039062
-0.035156
-0.035156
-0.029297
-0.035156
-0.029297
-0.029297
-0.025391
-0.025391
-0.019531
-0.019531
-0.019531
-0.019531
-0.025391
-0.025391
-0.029297
-0.035156
-0.039062
-0.039062
-0.029297
-0.025391
-0.003906
0.025391
0.054688
0.076172
0.080078
0.080078
0.070312
0.050781
0.035156
0.031250
0.025391
0.031250
0.041016
0.050781
0.064453
0.070312
0.076172
0.085938
0.070312
0.080078
0.085938
0.080078
0.064453
0.035156
0.015625
0.005859
0.000000
-0.003906
-0.013672
-0.013672
-0.019531
-0.029297
-0.054688
0.330080
1.099600
0.564450
-0.398440
-0.498050
-0.498050
-0.404300
-0.234380
-0.109380
-0.054688
-0.039062
-0.029297
-0.019531
-0.019531
-0.013672
-0.013672
-0.009766
-0.003906
-0.003906
-0.003906
-0.009766
-0.009766
-0.003906
-0.009766
-0.003906
-0.003906
-0.003906
-0.003906
-0.009766
-0.013672
-0.019531
-0.025391
-0.025391
-0.025391
-0.013672
0.005859
0.041016
0.076172
0.099609
0.099609
0.095703
0.080078
0.070312
0.050781
0.044922
0.035156
0.031250
0.015625
0.015625
0.015625
0.019531
0.025391
0.031250
0.035156
0.041016
0.050781
0.050781
0.050781
0.050781
0.050781
0.050781
0.050781
0.044922
0.031250
0.031250
0.031250
0.031250
0.031250
0.031250
0.031250
0.025391
0.025391
0.019531
0.025391
0.019531
0.025391
0.019531
0.015625
0.019531
0.015625
0.015625
0.025391
0.044922
0.060547
0.064453
0.076172
0.080078
0.089844
0.080078
0.085938
0.076172
0.050781
0.025391
-0.003906
-0.019531
-0.019531
-0.019531
-0.019531
-0.025391
-0.044922
0.269530
1.084000
1.199200
-0.330080
-0.498050
-0.498050
-0.484380
-0.298830
-0.154300
-0.083984
-0.064453
-0.054688
-0.044922
-0.035156
-0.035156
-0.035156
-0.044922
-0.039062
-0.029297
-0.035156
-0.039062
-0.035156
-0.025391
-0.029297
-0.019531
-0.019531
-0.025391
-0.025391
-0.029297
-0.035156
-0.044922
-0.058594
-0.054688
-0.048828
-0.054688
-0.044922
-0.019531
0.005859
0.050781
0.085938
0.105470
0.121090
0.121090
0.111330
0.080078
0.076172
0.070312
0.054688
0.044922
0.035156
0.031250
0.031250
0.050781
0.041016
0.050781
0.054688
0.064453
0.076172
0.076172
0.076172
0.064453
0.044922
0.050781
0.050781
0.050781
0.041016
0.035156
0.041016
0.031250
0.025391
0.025391
0.031250
0.031250
0.031250
0.041016
0.050781
0.070312
0.064453
0.085938
0.076172
0.095703
0.076172
0.060547
0.050781
0.041016
0.009766
-0.019531
-0.025391
-0.019531
-0.039062
-0.025391
-0.035156
-0.044922
0.224610
0.974610
1.119100
-0.375000
-0.498050
-0.498050
-0.498050
-0.349610
-0.205080
-0.089844
-0.064453
-0.048828
-0.039062
-0.029297
-0.025391
-0.029297
-0.019531
-0.025391
-0.029297
-0.019531
-0.019531
-0.019531
-0.025391
-0.029297
-0.019531
-0.019531
-0.013672
-0.019531
-0.044922
-0.048828
-0.039062
-0.064453
-0.070312
-0.080078
-0.089844
-0.080078
-0.064453
-0.048828
-0.003906
0.035156
0.060547
0.064453
0.060547
0.064453
0.041016
0.031250
0.035156
0.019531
0.025391
0.031250
0.025391
0.031250
0.050781
0.050781
0.054688
0.070312
0.076172
0.076172
0.070312
0.064453
0.060547
0.054688
0.054688
0.054688
0.044922
0.041016
0.041016
0.031250
0.031250
0.041016
0.054688
0.064453
0.070312
0.076172
0.070312
0.085938
0.076172
0.060547
0.050781
0.035156
0.015625
-0.013672
-0.029297
-0.029297
-0.029297
-0.029297
-0.029297
-0.048828
0.044922
0.685550
1.103500
0.041016
-0.498050
-0.498050
-0.498050
-0.404300
-0.244140
-0.125000
-0.074219
-0.058594
-0.044922
-0.035156
-0.029297
-0.029297
-0.029297
-0.029297
-0.029297
-0.029297
-0.029297
-0.029297
-0.029297
-0.029297
-0.035156
-0.025391
-0.025391
-0.029297
-0.035156
-0.039062
-0.044922
-0.058594
-0.070312
-0.070312
-0.070312
-0.064453
-0.058594
-0.039062
0.000000
0.025391
0.044922
0.054688
0.060547
0.050781
0.031250
0.019531
0.009766
0.000000
0.000000
-0.003906
-0.003906
0.000000
0.005859
0.009766
0.019531
0.031250
0.035156
0.041016
0.044922
0.050781
0.044922
0.041016
0.041016
0.041016
0.031250
0.031250
0.031250
0.025391
0.019531
0.044922
0.060547
0.064453
0.076172
0.076172
0.089844
0.076172
0.076172
0.064453
0.054688
0.031250
0.009766
-0.013672
-0.019531
-0.019531
-0.019531
-0.025391
-0.019531
-0.064453
0.150390
0.945310
1.218800
-0.164060
-0.498050
-0.498050
-0.498050
-0.330080
-0.173830
-0.089844
-0.064453
-0.044922
-0.039062
-0.029297
-0.025391
-0.019531
-0.019531
-0.019531
-0.019531
-0.019531
-0.019531
-0.025391
-0.025391
-0.019531
-0.013672
-0.009766
-0.013672
-0.013672
-0.019531
-0.025391
-0.035156
-0.039062
-0.048828
-0.044922
-0.044922
-0.039062
-0.019531
0.005859
0.041016
0.070312
0.085938
0.095703
0.089844
0.076172
0.064453
0.054688
0.044922
0.035156
0.031250
0.019531
0.019531
0.019531
0.019531
0.019531
0.025391
0.031250
0.035156
0.044922
0.050781
0.050781
0.050781
0.050781
0.050781
0.050781
0.044922
0.044922
0.041016
0.041016
0.044922
0.064453
0.076172
0.076172
0.080078
0.085938
0.105470
0.095703
0.080078
0.076172
0.064453
0.044922
0.019531
-0.003906
-0.013672
-0.013672
-0.009766
-0.009766
-0.003906
-0.044922
0.160160
0.888670
1.179700
-0.183590
-0.498050
-0.498050
-0.498050
-0.324220
-0.164060
-0.080078
-0.044922
-0.029297
-0.019531
-0.019531
-0.009766
-0.009766
-0.009766
-0.003906
-0.003906
-0.003906
-0.003906
-0.003906
-0.003906
-0.003906
0.000000
0.000000
-0.003906
0.000000
-0.009766
-0.019531
-0.025391
-0.035156
-0.044922
-0.044922
-0.044922
-0.039062
-0.019531
0.005859
0.044922
0.070312
0.089844
0.099609
0.095703
0.076172
0.064453
0.054688
0.044922
0.031250
0.031250
0.019531
0.025391
0.019531
0.031250
0.035156
0.041016
0.050781
0.054688
0.050781
0.060547
0.060547
0.054688
0.050781
0.050781
0.050781
0.050781
0.041016
0.035156
0.035156
0.041016
0.041016
0.060547
0.076172
0.080078
0.089844
0.089844
0.111330
0.089844
0.085938
0.076172
0.064453
0.041016
0.015625
-0.003906
-0.013672
-0.013672
-0.013672
-0.013672
-0.019531
-0.044922
0.185550
0.958980
1.173800
-0.263670
-0.498050
-0.498050
-0.498050
-0.333980
-0.173830
-0.083984
-0.058594
-0.044922
-0.035156
-0.029297
-0.019531
-0.019531
-0.025391
-0.019531
-0.013672
-0.019531
-0.019531
-0.019531
-0.019531
-0.013672
-0.009766
-0.009766
-0.003906
0.000000
-0.003906
-0.019531
-0.025391
-0.039062
-0.048828
-0.048828
-0.044922
-0.048828
-0.019531
0.000000
0.035156
0.070312
0.099609
0.099609
0.095703
0.089844
0.076172
0.060547
0.050781
0.031250
0.019531
0.035156
0.044922
0.044922
0.050781
0.054688
0.050781
0.064453
0.070312
0.070312
0.076172
0.064453
0.076172
0.070312
0.060547
0.054688
0.050781
0.050781
0.044922
0.050781
0.035156
0.041016
0.044922
0.076172
0.080078
0.080078
0.099609
0.095703
0.111330
0.099609
0.085938
0.076172
0.044922
0.019531
0.005859
-0.009766
-0.009766
-0.019531
-0.019531
-0.019531
-0.019531
-0.039062
0.494140
1.144500
0.314450
-0.498050
-0.498050
-0.498050
-0.443360
-0.273440
-0.125000
-0.048828
-0.029297
-0.025391
-0.019531
-0.013672
-0.003906
0.005859
0.005859
-0.009766
-0.003906
0.000000
0.005859
0.005859
0.005859
0.005859
-0.009766
-0.013672
0.005859
0.005859
-0.003906
-0.025391
-0.039062
-0.044922
-0.058594
-0.054688
-0.054688
-0.044922
-0.029297
0.000000
0.041016
0.064453
0.085938
0.089844
0.070312
0.064453
0.050781
0.041016
0.035156
0.035156
0.031250
0.035156
0.035156
0.050781
0.064453
0.076172
0.076172
0.080078
0.085938
0.080078
0.080078
0.085938
0.076172
0.064453
0.060547
0.050781
0.044922
0.044922
0.031250
0.031250
0.031250
0.031250
0.044922
0.054688
0.060547
0.070312
0.076172
0.085938
0.089844
0.076172
0.060547
0.050781
0.031250
0.009766
-0.013672
-0.019531
-0.019531
-0.025391
-0.029297
-0.025391
-0.044922
0.044922
0.685550
1.144500
0.060547
-0.498050
-0.498050
-0.498050
-0.398440
-0.240230
-0.115230
-0.064453
-0.048828
-0.039062
-0.035156
-0.029297
-0.025391
-0.025391
-0.025391
-0.019531
-0.019531
-0.019531
-0.019531
-0.025391
-0.025391
-0.019531
-0.019531
-0.013672
-0.009766
-0.019531
-0.019531
-0.035156
-0.044922
-0.048828
-0.058594
-0.064453
-0.064453
-0.054688
-0.029297
0.000000
0.035156
0.054688
0.064453
0.070312
0.054688
0.050781
0.035156
0.031250
0.019531
0.015625
0.009766
0.015625
0.019531
0.031250
0.031250
0.041016
0.044922
0.050781
0.060547
0.060547
0.060547
0.060547
0.054688
0.050781
0.050781
0.044922
0.044922
0.041016
0.041016
0.031250
0.031250
0.041016
0.064453
0.076172
0.076172
0.085938
0.095703
0.099609
0.085938
0.076172
0.064453
0.054688
0.035156
0.005859
-0.009766
-0.013672
-0.013672
-0.013672
-0.013672
-0.025391
-0.044922
0.365230
1.173800
1.193400
-0.349610
-0.498050
-0.498050
-0.443360
-0.263670
-0.128910
-0.058594
-0.039062
-0.025391
-0.019531
-0.009766
0.000000
0.000000
0.000000
0.000000
0.000000
0.000000
0.000000
0.000000
-0.003906
-0.003906
0.000000
0.000000
0.000000
0.000000
-0.009766
-0.019531
-0.035156
-0.039062
-0.044922
-0.044922
-0.044922
-0.035156
-0.013672
0.019531
0.050781
0.076172
0.089844
0.095703
0.089844
0.080078
0.064453
0.054688
0.044922
0.041016
0.031250
0.031250
0.031250
0.031250
0.031250
0.035156
0.044922
0.050781
0.054688
0.060547
0.064453
0.076172
0.070312
0.064453
0.064453
0.064453
0.060547
0.050781
0.050781
0.050781
0.044922
0.044922
0.050781
0.070312
0.080078
0.085938
0.095703
0.099609
0.115230
0.099609
0.095703
0.080078
0.070312
0.050781
0.019531
0.000000
0.000000
0.000000
-0.003906
0.000000
0.000000
-0.029297
0.205080
0.955080
1.183600
-0.228520
-0.498050
-0.498050
-0.484380
-0.298830
-0.148440
-0.058594
-0.025391
-0.013672
-0.003906
0.000000
0.005859
0.005859
0.005859
0.005859
0.005859
0.005859
0.000000
0.000000
0.005859
0.005859
0.005859
0.005859
0.005859
0.005859
0.000000
-0.009766
-0.019531
-0.029297
-0.039062
-0.044922
-0.044922
-0.044922
-0.025391
0.000000
0.035156
0.070312
0.085938
0.099609
0.099609
0.089844
0.076172
0.064453
0.054688
0.050781
0.076172
0.095703
0.089844
0.125000
0.144530
0.150390
0.144530
0.156250
0.130860
0.099609
0.064453
0.041016
0.031250
0.031250
0.019531
0.015625
0.015625
0.005859
0.005859
-0.003906
-0.035156
0.304690
1.074200
0.480470
-0.439450
-0.498050
-0.498050
-0.388670
-0.208980
-0.093750
-0.035156
-0.019531
-0.009766
-0.003906
-0.003906
-0.003906
0.005859
0.005859
0.005859
0.009766
0.009766
0.005859
0.005859
0.005859
0.005859
0.005859
0.005859
0.005859
0.005859
-0.009766
-0.019531
-0.019531
-0.025391
-0.029297
-0.029297
-0.013672
0.005859
0.035156
0.076172
0.095703
0.099609
0.105470
0.085938
0.076172
0.064453
0.050781
0.041016
0.035156
0.044922
0.050781
0.050781
0.054688
0.060547
0.070312
0.080078
0.076172
0.070312
0.070312
0.076172
0.064453
0.070312
0.054688
0.050781
0.050781
0.041016
0.035156
0.035156
0.041016
0.031250
0.025391
0.031250
0.025391
0.019531
0.015625
0.009766
0.019531
0.015625
0.025391
0.031250
0.025391
0.025391
0.015625
0.015625
0.015625
0.019531
0.005859
0.019531
0.025391
0.015625
0.005859
0.009766
0.009766
0.005859
0.005859
0.005859
0.009766
0.015625
0.005859
0.005859
0.019531
0.041016
0.044922
0.054688
0.054688
0.076172
0.064453
0.070312
0.054688
0.035156
0.000000
-0.019531
-0.035156
-0.029297
-0.025391
-0.039062
-0.029297
-0.044922
0.275390
1.013700
1.084000
-0.439450
-0.498050
-0.498050
-0.498050
-0.333980
-0.183590
-0.099609
-0.070312
-0.058594
-0.029297
-0.025391
-0.039062
-0.029297
-0.025391
-0.025391
-0.019531
-0.013672
-0.019531
-0.013672
-0.013672
-0.013672
-0.019531
-0.025391
-0.003906
-0.019531
-0.019531
-0.035156
-0.044922
-0.064453
-0.080078
-0.089844
-0.099609
-0.093750
-0.093750
-0.070312
-0.035156
0.000000
0.035156
0.060547
0.070312
0.076172
0.089844
0.130860
0.140620
0.111330
0.085938
0.076172
0.076172
0.076172
0.080078
0.085938
0.070312
0.070312
0.064453
0.054688
0.050781
0.044922
0.041016
0.035156
0.005859
-0.019531
0.609380
1.134800
0.044922
-0.498050
-0.498050
-0.498050
-0.298830
-0.148440
-0.070312
-0.044922
-0.035156
-0.025391
-0.025391
-0.019531
-0.019531
-0.019531
-0.019531
-0.019531
-0.019531
-0.019531
-0.019531
-0.019531
-0.025391
-0.025391
-0.029297
-0.035156
-0.044922
-0.048828
-0.064453
-0.074219
-0.080078
-0.089844
-0.089844
-0.083984
-0.070312
-0.029297
0.015625
0.044922
0.054688
0.064453
0.060547
0.050781
0.041016
0.031250
0.025391
0.019531
0.031250
0.031250
0.031250
0.035156
0.044922
0.050781
0.050781
0.050781
0.050781
0.044922
0.041016
0.041016
0.031250
0.035156
0.031250
0.031250
0.025391
0.025391
0.025391
0.019531
0.019531
0.019531
0.009766
0.009766
0.015625
0.009766
0.009766
0.015625
0.015625
0.005859
0.005859
0.009766
0.005859
0.005859
0.009766
0.005859
0.005859
0.005859
0.009766
0.005859
0.005859
0.005859
0.005859
0.009766
0.009766
0.009766
0.015625
0.009766
0.015625
0.009766
0.009766
0.009766
0.015625
0.009766
0.015625
0.009766
0.009766
0.005859
0.005859
0.009766
0.005859
0.005859
0.035156
0.050781
0.050781
0.050781
0.070312
0.076172
0.070312
0.076172
0.054688
0.035156
0.015625
-0.009766
-0.025391
-0.025391
-0.029297
-0.019531
-0.048828
-0.054688
0.679690
1.263700
0.220700
-0.464840
-0.498050
-0.498050
-0.375000
-0.214840
-0.119140
-0.080078
-0.058594
-0.048828
-0.044922
-0.044922
-0.039062
-0.039062
-0.039062
-0.039062
-0.035156
-0.029297
-0.029297
-0.025391
-0.029297
-0.035156
-0.029297
-0.035156
-0.035156
-0.044922
-0.044922
-0.058594
-0.080078
-0.089844
-0.103520
-0.115230
-0.115230
-0.115230
-0.109380
-0.083984
-0.048828
-0.003906
0.025391
0.060547
0.070312
0.080078
0.080078
0.076172
0.064453
0.054688
0.050781
0.044922
0.050781
0.044922
0.050781
0.050781
0.060547
0.070312
0.070312
0.076172
0.076172
0.076172
0.064453
0.070312
0.060547
0.064453
0.064453
0.080078
0.089844
0.099609
0.099609
0.089844
0.099609
0.080078
0.076172
0.070312
0.054688
0.031250
0.005859
-0.009766
-0.013672
-0.019531
-0.019531
-0.013672
-0.019531
-0.044922
0.156250
0.878910
1.134800
-0.214840
-0.498050
-0.498050
-0.498050
-0.330080
-0.169920
-0.074219
-0.039062
-0.019531
-0.013672
0.000000
0.000000
0.005859
0.005859
0.005859
0.005859
0.005859
0.000000
0.005859
0.005859
0.005859
0.005859
0.005859
0.005859
0.005859
-0.003906
-0.019531
-0.029297
-0.044922
-0.058594
-0.064453
-0.070312
-0.058594
-0.054688
-0.029297
0.009766
0.035156
0.054688
0.076172
0.070312
0.050781
0.050781
0.041016
0.041016
0.025391
0.019531
0.025391
0.031250
0.041016
0.044922
0.050781
0.054688
0.064453
0.070312
0.076172
0.070312
0.076172
0.060547
0.064453
0.070312
0.070312
0.060547
0.050781
0.050781
0.044922
0.050781
0.041016
0.044922
0.044922
0.050781
0.044922
0.041016
0.035156
0.041016
0.041016
0.044922
0.044922
0.044922
0.044922
0.031250
0.031250
0.041016
0.044922
0.054688
0.076172
0.080078
0.076172
0.085938
0.089844
0.076172
0.070312
0.054688
0.035156
0.015625
0.000000
-0.009766
-0.003906
-0.009766
-0.013672
-0.019531
0.054688
0.628910
1.125000
0.121090
-0.498050
-0.498050
-0.498050
-0.419920
-0.253910
-0.115230
-0.054688
-0.039062
-0.025391
-0.019531
-0.003906
0.000000
-0.013672
-0.003906
-0.009766
-0.003906
0.000000
-0.009766
-0.009766
0.005859
0.009766
0.005859
0.005859
0.000000
-0.009766
-0.013672
-0.025391
-0.044922
-0.058594
-0.074219
-0.089844
-0.093750
-0.099609
-0.080078
-0.054688
-0.013672
0.019531
0.050781
0.060547
0.070312
0.060547
0.050781
0.044922
0.041016
0.050781
0.035156
0.050781
0.050781
0.076172
0.076172
0.080078
0.085938
0.076172
0.089844
0.080078
0.089844
0.076172
0.076172
0.064453
0.060547
0.054688
0.050781
0.050781
0.044922
0.041016
0.041016
0.035156
0.035156
0.031250
0.031250
0.031250
0.031250
0.025391
0.019531
0.025391
0.015625
0.015625
0.009766
0.005859
0.015625
0.025391
0.041016
0.054688
0.054688
0.050781
0.064453
0.050781
0.050781
0.035156
0.031250
0.015625
-0.009766
-0.019531
-0.025391
-0.025391
-0.025391
-0.029297
-0.039062
0.230470
0.974610
1.128900
-0.330080
-0.498050
-0.498050
-0.498050
-0.339840
-0.189450
-0.099609
-0.074219
-0.064453
-0.048828
-0.048828
-0.044922
-0.044922
-0.039062
-0.039062
-0.039062
-0.035156
-0.035156
-0.039062
-0.035156
-0.035156
-0.029297
-0.035156
-0.035156
-0.035156
-0.035156
-0.044922
-0.064453
-0.070312
-0.089844
-0.093750
-0.103520
-0.115230
-0.109380
-0.089844
-0.054688
-0.019531
0.015625
0.044922
0.080078
0.125000
0.140620
0.099609
0.054688
0.041016
0.035156
0.031250
0.025391
0.019531
0.019531
0.019531
0.019531
0.019531
0.025391
0.031250
0.035156
0.031250
0.005859
0.125000
0.839840
1.115200
-0.218750
-0.498050
-0.498050
-0.474610
-0.234380
-0.093750
-0.029297
-0.013672
-0.003906
0.000000
0.000000
0.005859
0.009766
0.015625
0.009766
0.015625
0.015625
0.009766
0.005859
0.005859
0.005859
0.005859
0.005859
0.005859
0.000000
-0.009766
-0.019531
-0.025391
-0.035156
-0.044922
-0.044922
-0.039062
-0.013672
0.019531
0.050781
0.076172
0.085938
0.089844
0.076172
0.070312
0.060547
0.050781
0.044922
0.041016
0.070312
0.121090
0.144530
0.144530
0.130860
0.140620
0.115230
0.095703
0.070312
0.050781
0.035156
0.025391
0.015625
0.015625
0.009766
0.015625
0.005859
-0.009766
-0.035156
0.460940
1.218800
0.470700
-0.439450
-0.498050
-0.498050
-0.375000
-0.193360
-0.089844
-0.044922
-0.025391
-0.019531
-0.019531
-0.009766
-0.009766
-0.003906
0.000000
0.000000
0.000000
0.005859
0.000000
0.005859
0.000000
0.005859
0.005859
0.005859
0.000000
0.005859
-0.013672
-0.019531
-0.029297
-0.035156
-0.039062
-0.035156
-0.025391
0.005859
0.035156
0.070312
0.089844
0.099609
0.080078
0.070312
0.054688
0.044922
0.035156
0.031250
0.031250
0.031250
0.031250
0.035156
0.044922
0.054688
0.085938
0.099609
0.121090
0.121090
0.115230
0.121090
0.099609
0.095703
0.089844
0.085938
0.070312
0.031250
0.005859
0.000000
-0.003906
-0.013672
-0.009766
-0.019531
-0.019531
-0.029297
-0.048828
0.394530
1.144500
0.519530
-0.404300
-0.498050
-0.498050
-0.419920
-0.250000
-0.125000
-0.058594
-0.044922
-0.029297
-0.019531
-0.019531
-0.013672
-0.009766
-0.009766
-0.003906
-0.013672
-0.009766
-0.013672
-0.013672
-0.013672
-0.009766
-0.003906
-0.003906
-0.009766
-0.013672
-0.019531
-0.029297
-0.044922
-0.044922
-0.044922
-0.048828
-0.044922
-0.019531
0.015625
0.044922
0.070312
0.085938
0.076172
0.064453
0.054688
0.044922
0.031250
0.025391
0.015625
0.005859
0.009766
0.009766
0.031250
0.025391
0.031250
0.041016
0.050781
0.050781
0.050781
0.050781
0.044922
0.050781
0.044922
0.041016
0.031250
0.031250
0.025391
0.031250
0.031250
0.031250
0.025391
0.019531
0.009766
0.015625
0.019531
0.019531
0.015625
0.019531
0.009766
0.015625
0.015625
0.009766
0.015625
0.015625
0.015625
0.019531
0.009766
0.005859
0.015625
0.019531
0.015625
0.009766
0.019531
0.005859
0.005859
0.009766
0.005859
0.009766
0.005859
0.044922
0.054688
0.060547
0.050781
0.076172
0.085938
0.070312
0.076172
0.044922
0.015625
-0.003906
-0.019531
-0.029297
-0.025391
-0.029297
-0.035156
-0.044922
0.035156
0.625000
1.109400
0.064453
-0.498050
-0.498050
-0.498050
-0.423830
-0.263670
-0.128910
-0.070312
-0.058594
-0.039062
-0.029297
-0.039062
-0.035156
-0.044922
-0.025391
-0.025391
-0.029297
-0.019531
-0.019531
-0.029297
-0.019531
-0.013672
-0.013672
-0.013672
-0.009766
-0.035156
-0.039062
-0.044922
-0.064453
-0.080078
-0.089844
-0.099609
-0.099609
-0.093750
-0.089844
-0.048828
-0.003906
0.031250
0.054688
0.070312
0.070312
0.076172
0.060547
0.060547
0.050781
0.035156
0.044922
0.050781
0.050781
0.064453
0.080078
0.095703
0.095703
0.099609
0.089844
0.095703
0.085938
0.076172
0.076172
0.060547
0.050781
0.050781
0.050781
0.041016
0.041016
0.031250
0.031250
0.031250
0.025391
0.019531
0.015625
0.009766
0.005859
0.005859
0.005859
0.005859
0.000000
-0.003906
-0.003906
-0.009766
-0.009766
-0.003906
-0.003906
-0.009766
-0.009766
-0.013672
-0.013672
0.005859
0.031250
0.035156
0.031250
0.035156
0.060547
0.044922
0.044922
0.025391
0.009766
-0.009766
-0.029297
-0.048828
-0.054688
-0.054688
-0.048828
-0.054688
-0.074219
0.115230
0.884770
1.164100
-0.183590
-0.498050
-0.498050
-0.498050
-0.363280
-0.214840
-0.128910
-0.089844
-0.080078
-0.064453
-0.064453
-0.058594
-0.054688
-0.054688
-0.054688
-0.048828
-0.048828
-0.048828
-0.044922
-0.044922
-0.044922
-0.044922
-0.044922
-0.039062
-0.044922
-0.048828
-0.054688
-0.064453
-0.083984
-0.083984
-0.070312
-0.064453
-0.054688
-0.058594
-0.039062
0.000000
0.019531
0.064453
0.085938
0.089844
0.070312
0.041016
0.009766
0.005859
-0.009766
-0.013672
-0.019531
-0.019531
-0.019531
-0.025391
-0.019531
-0.013672
-0.003906
-0.009766
0.259770
1.019500
1.093800
-0.375000
-0.498050
-0.498050
-0.439450
-0.205080
-0.064453
-0.019531
-0.003906
0.005859
0.015625
0.015625
0.019531
0.019531
0.031250
0.025391
0.025391
0.019531
0.025391
0.031250
0.019531
0.025391
0.025391
0.031250
0.025391
0.015625
0.005859
0.000000
-0.003906
-0.013672
-0.019531
-0.019531
0.000000
0.031250
0.064453
0.089844
0.099609
0.095703
0.085938
0.080078
0.070312
0.064453
0.064453
0.060547
0.060547
0.060547
0.064453
0.070312
0.064453
0.060547
0.095703
0.144530
0.166020
0.160160
0.140620
0.130860
0.095703
0.070312
0.041016
0.025391
0.015625
0.005859
0.000000
-0.003906
-0.003906
-0.009766
-0.019531
-0.039062
0.400390
1.144500
0.439450
-0.458980
-0.498050
-0.498050
-0.404300
-0.214840
-0.103520
-0.048828
-0.035156
-0.025391
-0.019531
-0.009766
-0.009766
-0.009766
-0.003906
-0.003906
-0.003906
-0.003906
-0.003906
-0.003906
0.000000
0.000000
0.005859
0.005859
0.000000
-0.009766
-0.019531
-0.025391
-0.039062
-0.044922
-0.044922
-0.044922
-0.044922
-0.025391
0.009766
0.050781
0.076172
0.080078
0.076172
0.064453
0.050781
0.041016
0.031250
0.025391
0.031250
0.031250
0.031250
0.031250
0.041016
0.050781
0.060547
0.064453
0.060547
0.064453
0.064453
0.060547
0.050781
0.044922
0.041016
0.041016
0.031250
0.035156
0.031250
0.031250
0.025391
0.025391
0.025391
0.019531
0.015625
0.015625
0.009766
0.009766
0.031250
0.050781
0.060547
0.054688
0.076172
0.095703
0.080078
0.076172
0.060547
0.050781
0.031250
0.000000
-0.019531
-0.025391
-0.029297
-0.025391
-0.029297
-0.035156
-0.054688
0.201170
0.968750
1.125000
-0.318360
-0.498050
-0.498050
-0.498050
-0.308590
-0.169920
-0.089844
-0.064453
-0.044922
-0.029297
-0.029297
-0.029297
-0.025391
-0.025391
-0.029297
-0.025391
-0.019531
-0.019531
-0.019531
-0.025391
-0.019531
-0.019531
-0.025391
-0.019531
-0.013672
-0.019531
-0.019531
-0.003906
0.000000
0.005859
0.000000
-0.003906
0.009766
0.005859
0.044922
0.085938
0.099609
0.099609
0.076172
0.064453
0.050781
0.031250
0.015625
0.005859
-0.003906
-0.013672
-0.019531
-0.019531
-0.003906
0.005859
0.005859
0.201170
0.929690
1.084000
-0.330080
-0.498050
-0.498050
-0.468750
-0.224610
-0.070312
0.000000
0.015625
0.025391
0.031250
0.031250
0.031250
0.031250
0.031250
0.031250
0.041016
0.035156
0.041016
0.035156
0.035156
0.041016
0.044922
0.041016
0.050781
0.041016
0.044922
0.041016
0.044922
0.041016
0.050781
0.054688
0.076172
0.099609
0.111330
0.115230
0.105470
0.089844
0.105470
0.140620
0.156250
0.160160
0.144530
0.125000
0.115230
0.099609
0.070312
0.060547
0.054688
0.041016
0.025391
0.015625
0.009766
0.005859
0.005859
0.000000
0.000000
-0.039062
-0.044922
0.669920
1.074200
-0.064453
-0.498050
-0.498050
-0.498050
-0.339840
-0.193360
-0.099609
-0.048828
-0.035156
-0.025391
-0.029297
-0.035156
-0.019531
-0.013672
-0.019531
-0.009766
-0.013672
-0.003906
-0.009766
-0.019531
-0.009766
-0.013672
0.000000
-0.019531
-0.025391
-0.019531
-0.044922
-0.044922
-0.044922
-0.054688
-0.058594
-0.035156
-0.003906
0.031250
0.070312
0.085938
0.089844
0.070312
0.060547
0.050781
0.035156
0.025391
0.031250
0.031250
0.041016
0.050781
0.050781
0.054688
0.060547
0.070312
0.064453
0.060547
0.050781
0.044922
0.041016
0.035156
0.031250
0.025391
0.015625
0.015625
0.009766
0.005859
0.005859
0.000000
-0.003906
-0.003906
-0.009766
-0.003906
-0.003906
-0.009766
-0.003906
-0.003906
-0.009766
-0.009766
-0.009766
-0.003906
-0.009766
-0.009766
-0.009766
-0.003906
-0.009766
-0.013672
-0.013672
-0.009766
-0.009766
-0.009766
-0.009766
-0.009766
-0.013672
-0.019531
-0.019531
-0.019531
-0.009766
-0.013672
-0.013672
-0.019531
-0.019531
-0.019531
-0.019531
-0.013672
-0.013672
-0.013672
0.009766
0.025391
0.041016
0.031250
0.031250
0.031250
0.025391
0.031250
0.025391
0.009766
-0.013672
-0.039062
-0.044922
-0.039062
-0.044922
-0.044922
-0.058594
0.015625
0.619140
1.179700
0.185550
-0.494140
-0.498050
-0.498050
-0.394530
-0.234380
-0.128910
-0.080078
-0.054688
-0.044922
-0.039062
-0.039062
-0.035156
-0.029297
-0.035156
-0.035156
-0.035156
-0.029297
-0.025391
-0.025391
-0.029297
-0.025391
-0.025391
-0.025391
-0.025391
-0.029297
-0.044922
-0.054688
-0.064453
-0.070312
-0.074219
-0.074219
-0.064453
-0.058594
-0.039062
-0.009766
0.031250
0.064453
0.095703
0.111330
0.111330
0.115230
0.095703
0.080078
0.076172
0.060547
0.054688
0.050781
0.044922
0.050781
0.050781
0.054688
0.064453
0.064453
0.070312
0.076172
0.076172
0.064453
0.060547
0.054688
0.060547
0.050781
0.050781
0.041016
0.041016
0.041016
0.035156
0.031250
0.019531
0.019531
0.019531
0.015625
0.015625
0.015625
0.015625
0.015625
0.015625
0.015625
0.009766
0.025391
0.044922
0.054688
0.064453
0.060547
0.054688
0.070312
0.050781
0.050781
0.041016
0.025391
0.005859
-0.019531
-0.029297
-0.025391
-0.029297
-0.025391
-0.035156
-0.048828
0.310550
1.093800
1.115200
-0.378910
-0.498050
-0.498050
-0.464840
-0.279300
-0.144530
-0.070312
-0.048828
-0.039062
-0.025391
-0.019531
-0.019531
-0.019531
-0.013672
-0.019531
-0.019531
-0.009766
-0.013672
-0.009766
-0.009766
-0.013672
-0.003906
-0.009766
-0.013672
-0.019531
-0.025391
-0.044922
-0.054688
-0.074219
-0.083984
-0.089844
-0.089844
-0.089844
-0.080078
-0.048828
-0.009766
0.031250
0.054688
0.070312
0.076172
0.070312
0.060547
0.050781
0.044922
0.041016
0.035156
0.031250
0.031250
0.031250
0.041016
0.050781
0.050781
0.054688
0.070312
0.076172
0.070312
0.070312
0.064453
0.064453
0.054688
0.050781
0.050781
0.050781
0.050781
0.044922
0.044922
0.044922
0.041016
0.035156
0.035156
0.035156
0.031250
0.031250
0.031250
0.031250
0.031250
0.031250
0.031250
0.041016
0.050781
0.070312
0.080078
0.076172
0.080078
0.089844
0.070312
0.076172
0.060547
0.044922
0.025391
0.005859
-0.009766
-0.009766
-0.009766
-0.013672
-0.019531
-0.029297
0.294920
1.058600
1.134800
-0.369140
-0.498050
-0.498050
-0.468750
-0.279300
-0.138670
-0.064453
-0.035156
-0.029297
-0.013672
-0.019531
-0.013672
-0.009766
-0.009766
-0.009766
-0.003906
-0.009766
-0.003906
-0.003906
0.000000
-0.003906
0.000000
-0.003906
-0.009766
-0.003906
-0.013672
-0.025391
-0.039062
-0.058594
-0.064453
-0.074219
-0.080078
-0.074219
-0.064453
-0.039062
0.000000
0.035156
0.064453
0.076172
0.085938
0.076172
0.076172
0.064453
0.050781
0.050781
0.044922
0.044922
0.041016
0.044922
0.044922
0.050781
0.054688
0.054688
0.064453
0.060547
0.064453
0.060547
0.054688
0.050781
0.050781
0.044922
0.044922
0.035156
0.031250
0.031250
0.025391
0.015625
0.009766
0.009766
0.015625
0.005859
0.005859
0.009766
0.009766
0.005859
0.005859
0.009766
0.015625
0.031250
0.050781
0.060547
0.070312
0.064453
0.070312
0.076172
0.054688
0.060547
0.050781
0.031250
0.005859
-0.009766
-0.019531
-0.013672
-0.019531
-0.019531
-0.029297
0.035156
0.619140
1.160200
0.140620
-0.498050
-0.498050
-0.498050
-0.404300
-0.228520
-0.103520
-0.054688
-0.039062
-0.029297
-0.019531
-0.013672
0.005859
-0.003906
-0.009766
0.000000
-0.009766
-0.009766
-0.003906
0.000000
0.000000
0.005859
0.005859
0.000000
0.005859
0.005859
0.005859
-0.019531
-0.035156
-0.044922
-0.058594
-0.070312
-0.070312
-0.064453
-0.054688
-0.025391
0.025391
0.054688
0.076172
0.089844
0.121090
0.160160
0.140620
0.115230
0.070312
0.044922
0.060547
0.050781
0.050781
0.041016
0.035156
0.031250
0.050781
0.035156
0.041016
0.050781
0.044922
0.035156
0.009766
0.345700
1.070300
0.384770
-0.498050
-0.498050
-0.498050
-0.375000
-0.169920
-0.054688
-0.013672
0.000000
-0.003906
0.005859
0.015625
0.015625
0.019531
0.005859
0.019531
0.019531
0.015625
0.019531
0.015625
0.015625
0.019531
0.015625
0.019531
0.009766
0.000000
0.000000
-0.009766
-0.019531
-0.019531
-0.019531
-0.019531
0.000000
0.031250
0.054688
0.076172
0.095703
0.099609
0.085938
0.076172
0.064453
0.050781
0.050781
0.041016
0.035156
0.035156
0.031250
0.035156
0.044922
0.050781
0.054688
0.054688
0.050781
0.050781
0.050781
0.050781
0.035156
0.031250
0.031250
0.031250
0.025391
0.019531
0.015625
0.009766
0.009766
0.009766
0.005859
0.005859
0.005859
0.005859
0.000000
-0.003906
-0.003906
-0.003906
-0.003906
-0.009766
-0.009766
-0.009766
-0.003906
-0.009766
-0.009766
-0.009766
-0.013672
-0.013672
-0.013672
-0.013672
-0.009766
-0.009766
-0.009766
-0.013672
-0.009766
-0.013672
-0.013672
-0.013672
-0.009766
-0.003906
-0.009766
-0.013672
-0.009766
-0.009766
-0.009766
-0.013672
-0.003906
0.015625
0.035156
0.044922
0.041016
0.044922
0.064453
0.070312
0.064453
0.050781
0.035156
0.019531
-0.009766
-0.025391
-0.035156
-0.035156
-0.019531
-0.029297
-0.054688
0.291020
1.125000
1.234400
-0.318360
-0.498050
-0.498050
-0.464840
-0.294920
-0.164060
-0.093750
-0.064453
-0.054688
-0.044922
-0.029297
-0.035156
-0.029297
-0.029297
-0.025391
-0.025391
-0.019531
-0.019531
-0.019531
-0.019531
-0.019531
-0.019531
-0.019531
-0.013672
-0.019531
-0.019531
-0.035156
-0.044922
-0.058594
-0.074219
-0.089844
-0.089844
-0.093750
-0.089844
-0.064453
-0.035156
0.009766
0.044922
0.076172
0.095703
0.099609
0.095703
0.085938
0.080078
0.076172
0.070312
0.060547
0.060547
0.064453
0.070312
0.070312
0.076172
0.089844
0.089844
0.099609
0.099609
0.095703
0.095703
0.089844
0.089844
0.085938
0.076172
0.076172
0.070312
0.060547
0.054688
0.050781
0.050781
0.050781
0.044922
0.041016
0.035156
0.041016
0.035156
0.035156
0.031250
0.035156
0.031250
0.031250
0.031250
0.031250
0.031250
0.031250
0.041016
0.054688
0.064453
0.080078
0.076172
0.076172
0.089844
0.070312
0.076172
0.064453
0.050781
0.031250
0.009766
0.000000
-0.003906
-0.009766
-0.009766
-0.019531
-0.035156
0.416020
1.169900
0.484380
-0.423830
-0.498050
-0.498050
-0.433590
-0.250000
-0.125000
-0.064453
-0.044922
-0.029297
-0.019531
-0.013672
-0.009766
-0.013672
-0.009766
-0.009766
-0.003906
-0.009766
-0.013672
-0.009766
-0.003906
0.000000
-0.003906
-0.003906
-0.003906
-0.013672
-0.019531
-0.029297
-0.044922
-0.054688
-0.074219
-0.080078
-0.083984
-0.089844
-0.074219
-0.054688
-0.019531
0.015625
0.050781
0.076172
0.076172
0.076172
0.070312
0.060547
0.050781
0.044922
0.041016
0.041016
0.044922
0.044922
0.050781
0.050781
0.060547
0.064453
0.070312
0.076172
0.076172
0.076172
0.076172
0.070312
0.064453
0.060547
0.050781
0.054688
0.054688
0.050781
0.050781
0.044922
0.044922
0.044922
0.044922
0.041016
0.041016
0.041016
0.041016
0.041016
0.041016
0.054688
0.076172
0.076172
0.076172
0.076172
0.076172
0.064453
0.070312
0.054688
0.050781
0.031250
0.000000
-0.019531
-0.019531
-0.013672
-0.019531
-0.013672
-0.035156
0.259770
1.035200
1.179700
-0.333980
-0.498050
-0.498050
-0.494140
-0.294920
-0.144530
-0.058594
-0.035156
-0.013672
-0.003906
0.005859
0.005859
0.005859
-0.003906
0.005859
0.009766
0.009766
0.005859
0.019531
0.015625
0.015625
0.019531
0.025391
0.025391
0.009766
0.009766
0.005859
0.000000
-0.019531
-0.044922
-0.054688
-0.058594
-0.054688
-0.035156
-0.009766
0.031250
0.050781
0.080078
0.099609
0.095703
0.099609
0.076172
0.064453
0.070312
0.060547
0.050781
0.041016
0.044922
0.044922
0.050781
0.054688
0.064453
0.070312
0.064453
0.076172
0.085938
0.085938
0.076172
0.070312
0.064453
0.054688
0.050781
0.060547
0.054688
0.060547
0.050781
0.041016
0.035156
0.035156
0.031250
0.035156
0.031250
0.031250
0.031250
0.035156
0.031250
0.031250
0.050781
0.044922
0.080078
0.076172
0.076172
0.080078
0.054688
0.060547
0.041016
0.044922
0.015625
-0.003906
-0.009766
-0.013672
-0.019531
-0.013672
-0.019531
0.005859
0.390620
1.103500
0.519530
-0.474610
-0.498050
-0.498050
-0.488280
-0.294920
-0.138670
-0.058594
-0.035156
-0.019531
-0.009766
-0.003906
-0.009766
0.005859
0.005859
0.005859
0.005859
0.005859
0.005859
0.005859
0.005859
0.005859
0.000000
0.005859
0.000000
-0.009766
-0.009766
-0.019531
-0.029297
-0.044922
-0.064453
-0.074219
-0.083984
-0.083984
-0.074219
-0.064453
-0.029297
0.005859
0.031250
0.050781
0.076172
0.115230
0.125000
0.089844
0.054688
0.031250
0.031250
0.031250
0.031250
0.025391
0.025391
0.025391
0.019531
0.025391
0.025391
0.019531
0.019531
0.009766
-0.025391
0.210940
0.964840
1.070300
-0.443360
-0.498050
-0.498050
-0.429690
-0.205080
-0.080078
-0.039062
-0.025391
-0.019531
-0.013672
-0.003906
-0.009766
-0.003906
-0.003906
-0.013672
-0.013672
-0.009766
-0.009766
-0.009766
-0.013672
-0.013672
-0.009766
-0.009766
-0.019531
-0.019531
-0.029297
-0.039062
-0.044922
-0.044922
-0.048828
-0.044922
-0.039062
-0.013672
0.015625
0.050781
0.070312
0.076172
0.070312
0.054688
0.050781
0.035156
0.035156
0.025391
0.025391
0.019531
0.031250
0.031250
0.031250
0.041016
0.044922
0.050781
0.050781
0.050781
0.050781
0.044922
0.044922
0.035156
0.035156
0.035156
0.031250
0.031250
0.031250
0.031250
0.025391
0.025391
0.025391
0.015625
0.019531
0.015625
0.009766
0.015625
0.009766
0.009766
0.009766
0.005859
0.015625
0.009766
0.005859
0.009766
0.009766
0.009766
0.009766
0.009766
0.009766
0.009766
0.009766
0.015625
0.009766
0.015625
0.019531
0.019531
0.019531
0.019531
0.015625
0.019531
0.015625
0.019531
0.019531
0.019531
0.025391
0.044922
0.064453
0.076172
0.070312
0.080078
0.095703
0.076172
0.085938
0.060547
0.044922
0.025391
0.000000
-0.013672
-0.013672
-0.009766
-0.009766
-0.035156
0.064453
0.744140
1.259800
0.125000
-0.484380
-0.498050
-0.498050
-0.363280
-0.199220
-0.099609
-0.064453
-0.048828
-0.039062
-0.029297
-0.029297
-0.025391
-0.029297
-0.025391
-0.029297
-0.025391
-0.019531
-0.025391
-0.019531
-0.019531
-0.019531
-0.019531
-0.025391
-0.025391
-0.029297
-0.039062
-0.054688
-0.064453
-0.074219
-0.083984
-0.089844
-0.089844
-0.083984
-0.064453
-0.044922
-0.013672
0.025391
0.054688
0.076172
0.085938
0.085938
0.076172
0.060547
0.050781
0.044922
0.031250
0.025391
0.019531
0.019531
0.025391
0.025391
0.035156
0.044922
0.044922
0.044922
0.044922
0.054688
0.060547
0.050781
0.044922
0.050781
0.050781
0.050781
0.064453
0.076172
0.076172
0.089844
0.121090
0.130860
0.085938
0.050781
0.031250
0.015625
0.005859
0.005859
0.005859
0.005859
-0.013672
0.125000
0.814450
1.169900
-0.099609
-0.498050
-0.498050
-0.498050
-0.343750
-0.169920
-0.070312
-0.035156
-0.019531
-0.009766
0.000000
0.009766
0.015625
0.005859
0.009766
0.005859
0.009766
0.015625
0.009766
0.005859
0.000000
-0.003906
0.015625
0.025391
0.009766
0.005859
-0.009766
-0.025391
-0.035156
-0.029297
-0.035156
-0.044922
-0.035156
-0.019531
0.009766
0.041016
0.070312
0.076172
0.076172
0.085938
0.060547
0.031250
0.019531
0.031250
0.019531
0.015625
0.019531
0.015625
0.025391
0.031250
0.041016
0.050781
0.044922
0.031250
0.060547
0.054688
0.050781
0.044922
0.035156
0.031250
0.044922
0.031250
0.035156
0.019531
0.005859
0.025391
0.009766
0.019531
0.005859
0.000000
0.005859
0.005859
0.005859
-0.003906
0.000000
-0.003906
0.000000
0.005859
0.000000
0.005859
-0.003906
0.005859
0.005859
0.009766
0.009766
0.005859
0.005859
0.005859
0.005859
0.005859
0.000000
-0.003906
0.005859
0.025391
0.031250
0.044922
0.054688
0.050781
0.044922
0.060547
0.044922
0.044922
0.035156
0.025391
0.000000
-0.019531
-0.029297
-0.025391
-0.029297
-0.025391
-0.039062
0.089844
0.720700
1.054700
-0.064453
-0.498050
-0.498050
-0.498050
-0.408200
-0.250000
-0.125000
-0.074219
-0.058594
-0.048828
-0.044922
-0.039062
-0.035156
-0.035156
-0.035156
-0.035156
-0.035156
-0.035156
-0.035156
-0.029297
-0.029297
-0.029297
-0.029297
-0.029297
-0.035156
-0.039062
-0.044922
-0.058594
-0.070312
-0.089844
-0.099609
-0.109380
-0.115230
-0.115230
-0.109380
-0.083984
-0.044922
-0.003906
0.025391
0.041016
0.044922
0.041016
0.031250
0.025391
0.015625
0.009766
0.009766
0.009766
0.025391
0.031250
0.044922
0.050781
0.060547
0.064453
0.076172
0.076172
0.076172
0.070312
0.070312
0.054688
0.050781
0.050781
0.041016
0.041016
0.035156
0.031250
0.025391
0.019531
0.025391
0.025391
0.019531
0.019531
0.019531
0.019531
0.019531
0.015625
0.019531
0.025391
0.044922
0.060547
0.070312
0.064453
0.060547
0.070312
0.050781
0.054688
0.050781
0.031250
0.009766
-0.009766
-0.009766
-0.013672
-0.013672
-0.013672
-0.035156
0.111330
0.804690
1.193400
0.009766
-0.498050
-0.498050
-0.498050
-0.353520
-0.183590
-0.083984
-0.048828
-0.039062
-0.029297
-0.019531
-0.019531
-0.013672
-0.013672
-0.013672
-0.013672
-0.013672
-0.013672
-0.009766
0.000000
-0.003906
0.000000
0.000000
-0.009766
-0.009766
-0.013672
-0.019531
-0.035156
-0.044922
-0.058594
-0.064453
-0.064453
-0.064453
-0.054688
-0.035156
0.000000
0.035156
0.054688
0.076172
0.085938
0.080078
0.076172
0.064453
0.054688
0.050781
0.035156
0.031250
0.035156
0.035156
0.050781
0.054688
0.085938
0.099609
0.076172
0.050781
0.050781
0.041016
0.035156
0.031250
0.031250
0.031250
0.031250
0.015625
-0.013672
0.500000
1.134800
0.214840
-0.498050
-0.498050
-0.498050
-0.330080
-0.138670
-0.044922
-0.009766
0.005859
0.009766
0.009766
0.009766
0.015625
0.019531
0.015625
0.019531
0.019531
0.019531
0.019531
0.009766
0.015625
0.009766
0.015625
0.009766
0.005859
0.000000
-0.003906
-0.019531
-0.025391
-0.019531
-0.029297
-0.019531
-0.019531
0.000000
0.031250
0.054688
0.076172
0.080078
0.076172
0.064453
0.050781
0.041016
0.031250
0.031250
0.019531
0.015625
0.019531
0.031250
0.031250
0.035156
0.041016
0.050781
0.050781
0.050781
0.054688
0.050781
0.044922
0.050781
0.095703
0.121090
0.130860
0.125000
0.105470
0.095703
0.070312
0.041016
0.025391
0.000000
-0.003906
0.000000
0.005859
0.005859
-0.003906
-0.044922
0.230470
1.064500
1.218800
-0.318360
-0.498050
-0.498050
-0.478520
-0.279300
-0.148440
-0.064453
-0.044922
-0.019531
-0.019531
-0.009766
0.000000
-0.013672
-0.009766
-0.019531
-0.003906
0.000000
0.005859
0.005859
0.005859
-0.003906
-0.003906
0.000000
0.005859
0.000000
-0.009766
-0.013672
-0.003906
-0.029297
-0.044922
-0.035156
-0.039062
-0.013672
0.009766
0.041016
0.070312
0.085938
0.089844
0.085938
0.070312
0.050781
0.031250
0.019531
0.005859
-0.003906
0.005859
0.009766
0.005859
0.025391
0.035156
0.050781
0.076172
0.099609
0.111330
0.105470
0.144530
0.144530
0.121090
0.115230
0.099609
0.076172
0.041016
0.005859
-0.003906
-0.003906
-0.013672
-0.025391
-0.019531
-0.013672
-0.044922
-0.064453
0.515620
1.179700
0.275390
-0.498050
-0.498050
-0.498050
-0.404300
-0.240230
-0.119140
-0.064453
-0.044922
-0.029297
-0.019531
-0.019531
-0.019531
-0.019531
0.000000
0.000000
0.000000
0.000000
-0.003906
0.000000
0.005859
0.000000
0.005859
0.000000
-0.003906
-0.003906
-0.009766
-0.019531
-0.035156
-0.029297
-0.029297
-0.029297
-0.029297
-0.009766
0.019531
0.044922
0.064453
0.076172
0.064453
0.050781
0.035156
0.035156
0.064453
0.085938
0.064453
0.035156
0.009766
0.009766
0.005859
0.005859
0.005859
0.000000
0.000000
0.000000
-0.003906
-0.003906
0.000000
-0.009766
-0.019531
-0.039062
0.339840
1.115200
0.505860
-0.468750
-0.498050
-0.498050
-0.398440
-0.205080
-0.093750
-0.048828
-0.039062
-0.035156
-0.029297
-0.029297
-0.025391
-0.019531
-0.019531
-0.019531
-0.019531
-0.019531
-0.025391
-0.025391
-0.029297
-0.025391
-0.025391
-0.025391
-0.029297
-0.035156
-0.044922
-0.044922
-0.054688
-0.064453
-0.058594
-0.048828
-0.025391
0.000000
0.031250
0.054688
0.076172
0.064453
0.060547
0.050781
0.035156
0.025391
0.019531
0.015625
0.009766
0.009766
0.015625
0.019531
0.031250
0.035156
0.050781
0.044922
0.050781
0.050781
0.050781
0.044922
0.041016
0.041016
0.041016
0.031250
0.031250
0.031250
0.025391
0.025391
0.015625
0.019531
0.015625
0.015625
0.015625
0.015625
0.009766
0.009766
0.009766
0.015625
0.015625
0.015625
0.015625
0.015625
0.019531
0.019531
0.019531
0.015625
0.009766
0.009766
0.015625
0.019531
0.044922
0.054688
0.070312
0.080078
0.076172
0.095703
0.085938
0.089844
0.076172
0.050781
0.031250
0.000000
-0.019531
-0.019531
-0.019531
-0.013672
-0.035156
-0.054688
0.460940
1.240200
0.554690
-0.398440
-0.498050
-0.498050
-0.423830
-0.240230
-0.125000
-0.070312
-0.054688
-0.035156
-0.029297
-0.025391
-0.029297
-0.025391
-0.019531
-0.019531
-0.019531
-0.019531
-0.019531
-0.019531
-0.013672
-0.013672
-0.013672
-0.003906
-0.009766
-0.009766
-0.019531
-0.019531
-0.029297
-0.035156
-0.035156
-0.019531
-0.013672
-0.003906
0.019531
0.050781
0.085938
0.111330
0.125000
0.125000
0.121090
0.105470
0.095703
0.076172
0.064453
0.050781
0.041016
0.031250
0.019531
0.015625
0.019531
0.019531
0.031250
0.031250
0.041016
0.050781
0.050781
0.050781
0.054688
0.054688
0.050781
0.044922
0.044922
0.035156
0.035156
0.031250
0.031250
0.025391
0.025391
0.031250
0.044922
0.050781
0.064453
0.070312
0.076172
0.089844
0.095703
0.076172
0.060547
0.054688
0.035156
0.009766
-0.019531
-0.019531
-0.029297
-0.029297
-0.025391
-0.029297
-0.048828
0.220700
0.980470
1.154300
-0.324220
-0.498050
-0.498050
-0.498050
-0.314450
-0.160160
-0.083984
-0.054688
-0.044922
-0.029297
-0.025391
-0.019531
-0.019531
-0.019531
-0.013672
-0.019531
-0.019531
-0.019531
-0.025391
-0.019531
-0.019531
-0.019531
-0.019531
-0.019531
-0.035156
-0.039062
-0.044922
-0.058594
-0.064453
-0.064453
-0.070312
-0.070312
-0.074219
-0.048828
-0.009766
0.025391
0.060547
0.076172
0.080078
0.076172
0.064453
0.050781
0.044922
0.035156
0.031250
0.025391
0.025391
0.019531
0.015625
0.019531
0.035156
0.050781
0.050781
0.060547
0.070312
0.050781
0.060547
0.076172
0.060547
0.054688
0.050781
0.054688
0.050781
0.050781
0.050781
0.070312
0.080078
0.089844
0.085938
0.099609
0.105470
0.111330
0.095703
0.099609
0.076172
0.054688
0.031250
0.005859
0.000000
0.005859
-0.013672
-0.013672
-0.009766
-0.025391
0.050781
0.625000
1.144500
0.099609
-0.498050
-0.498050
-0.498050
-0.414060
-0.244140
-0.115230
-0.054688
-0.019531
-0.019531
-0.013672
-0.003906
0.005859
0.005859
0.005859
0.000000
-0.003906
-0.003906
0.005859
0.009766
0.000000
0.005859
0.009766
0.000000
-0.009766
-0.003906
-0.009766
-0.013672
-0.025391
-0.044922
-0.044922
-0.039062
-0.025391
-0.019531
-0.003906
0.031250
0.060547
0.085938
0.095703
0.080078
0.064453
0.044922
0.041016
0.025391
0.015625
0.015625
0.005859
0.005859
0.025391
0.031250
0.015625
0.041016
0.050781
0.054688
0.050781
0.050781
0.050781
0.054688
0.044922
0.050781
0.050781
0.044922
0.031250
0.031250
0.035156
0.031250
0.050781
0.060547
0.076172
0.080078
0.076172
0.089844
0.095703
0.080078
0.064453
0.050781
0.031250
0.009766
-0.003906
-0.019531
-0.019531
-0.019531
-0.019531
-0.025391
-0.044922
0.070312
0.744140
1.119100
-0.029297
-0.498050
-0.498050
-0.498050
-0.388670
-0.234380
-0.109380
-0.064453
-0.044922
-0.035156
-0.029297
-0.019531
-0.013672
-0.019531
-0.019531
-0.019531
-0.019531
-0.019531
-0.019531
-0.019531
-0.019531
-0.019531
-0.019531
-0.019531
-0.019531
-0.025391
-0.029297
-0.039062
-0.044922
-0.058594
-0.064453
-0.064453
-0.064453
-0.048828
-0.025391
0.005859
0.035156
0.054688
0.060547
0.050781
0.041016
0.031250
0.009766
0.000000
-0.003906
-0.019531
-0.019531
-0.019531
-0.013672
-0.003906
0.005859
0.015625
0.025391
0.025391
0.031250
0.031250
0.035156
0.031250
0.031250
0.031250
0.025391
0.009766
0.009766
0.009766
0.005859
0.009766
0.035156
0.050781
0.050781
0.060547
0.060547
0.076172
0.064453
0.060547
0.050781
0.041016
0.015625
-0.003906
-0.029297
-0.035156
-0.029297
-0.035156
-0.035156
-0.044922
-0.064453
0.201170
1.003900
1.228500
-0.240230
-0.498050
-0.498050
-0.494140
-0.324220
-0.164060
-0.089844
-0.064453
-0.048828
-0.044922
-0.035156
-0.025391
-0.025391
-0.019531
-0.025391
-0.025391
-0.025391
-0.025391
-0.019531
-0.019531
-0.019531
-0.019531
-0.019531
-0.019531
-0.025391
-0.029297
-0.035156
-0.039062
-0.048828
-0.044922
-0.048828
-0.048828
-0.044922
-0.019531
0.009766
0.044922
0.070312
0.080078
0.085938
0.076172
0.064453
0.054688
0.041016
0.035156
0.031250
0.025391
0.009766
0.005859
0.005859
0.005859
0.005859
0.005859
0.015625
0.019531
0.031250
0.035156
0.044922
0.041016
0.044922
0.044922
0.044922
0.044922
0.044922
0.041016
0.041016
0.035156
0.064453
0.076172
0.080078
0.085938
0.080078
0.099609
0.085938
0.080078
0.064453
0.054688
0.031250
0.005859
-0.013672
-0.019531
-0.019531
-0.019531
-0.013672
-0.025391
-0.044922
0.449220
1.179700
0.410160
-0.443360
-0.498050
-0.498050
-0.429690
-0.244140
-0.119140
-0.058594
-0.044922
-0.029297
-0.019531
-0.019531
-0.009766
-0.009766
-0.009766
-0.009766
0.000000
0.000000
0.000000
-0.003906
0.000000
0.000000
0.000000
0.000000
0.000000
0.000000
-0.009766
-0.019531
-0.029297
-0.035156
-0.039062
-0.035156
-0.029297
-0.019531
0.000000
0.035156
0.070312
0.085938
0.095703
0.099609
0.085938
0.070312
0.060547
0.050781
0.041016
0.031250
0.025391
0.019531
0.025391
0.025391
0.031250
0.044922
0.076172
0.099609
0.111330
0.140620
0.160160
0.156250
0.140620
0.125000
0.105470
0.080078
0.041016
0.009766
0.000000
-0.003906
-0.003906
-0.003906
-0.003906
-0.009766
-0.025391
-0.048828
0.435550
1.179700
0.380860
-0.443360
-0.498050
-0.498050
-0.384770
-0.208980
-0.099609
-0.048828
-0.035156
-0.025391
-0.019531
-0.019531
-0.009766
-0.003906
-0.003906
-0.003906
-0.003906
0.000000
0.000000
0.000000
0.000000
0.005859
0.005859
0.005859
0.000000
-0.003906
-0.009766
-0.019531
-0.019531
-0.025391
-0.019531
-0.019531
-0.013672
0.005859
0.035156
0.070312
0.089844
0.099609
0.099609
0.085938
0.070312
0.054688
0.035156
0.025391
0.031250
0.031250
0.031250
0.031250
0.031250
0.035156
0.041016
0.050781
0.050781
0.060547
0.060547
0.054688
0.054688
0.054688
0.050781
0.050781
0.044922
0.041016
0.041016
0.041016
0.035156
0.031250
0.031250
0.025391
0.031250
0.031250
0.031250
0.019531
0.031250
0.025391
0.019531
0.019531
0.025391
0.015625
0.015625
0.035156
0.054688
0.070312
0.080078
0.076172
0.099609
0.085938
0.080078
0.064453
0.050781
0.025391
0.000000
-0.019531
-0.019531
-0.019531
-0.025391
-0.019531
-0.039062
-0.048828
0.515620
1.169900
0.250000
-0.484380
-0.498050
-0.498050
-0.414060
-0.234380
-0.115230
-0.064453
-0.044922
-0.029297
-0.029297
-0.025391
-0.025391
-0.025391
-0.029297
-0.025391
-0.025391
-0.029297
-0.029297
-0.029297
-0.025391
-0.019531
-0.019531
-0.019531
-0.019531
-0.025391
-0.035156
-0.035156
-0.044922
-0.058594
-0.064453
-0.064453
-0.070312
-0.058594
-0.035156
0.000000
0.041016
0.070312
0.089844
0.099609
0.085938
0.076172
0.060547
0.050781
0.035156
0.031250
0.035156
0.031250
0.031250
0.041016
0.050781
0.054688
0.060547
0.064453
0.070312
0.076172
0.070312
0.076172
0.070312
0.060547
0.054688
0.050781
0.041016
0.031250
0.041016
0.044922
0.031250
0.031250
0.031250
0.044922
0.064453
0.076172
0.070312
0.080078
0.099609
0.105470
0.080078
0.064453
0.050781
0.019531
0.005859
-0.009766
-0.019531
-0.019531
-0.025391
-0.044922
-0.029297
-0.044922
0.085938
0.769530
1.080100
-0.144530
-0.498050
-0.498050
-0.498050
-0.378910
-0.224610
-0.103520
-0.054688
-0.039062
-0.044922
-0.029297
-0.019531
-0.013672
-0.013672
-0.013672
-0.013672
-0.009766
-0.019531
-0.025391
-0.003906
0.000000
-0.003906
-0.013672
-0.013672
-0.013672
-0.019531
-0.029297
-0.044922
-0.048828
-0.074219
-0.080078
-0.070312
-0.074219
-0.064453
-0.035156
0.005859
0.044922
0.060547
0.064453
0.070312
0.054688
0.050781
0.031250
0.015625
0.005859
0.005859
0.025391
0.035156
0.041016
0.044922
0.044922
0.050781
0.060547
0.070312
0.085938
0.076172
0.060547
0.050781
0.044922
0.050781
0.050781
0.044922
0.041016
0.031250
0.031250
0.035156
0.031250
0.035156
0.054688
0.076172
0.076172
0.076172
0.089844
0.099609
0.085938
0.076172
0.064453
0.050781
0.031250
0.000000
-0.013672
-0.009766
-0.019531
-0.019531
-0.019531
-0.019531
-0.039062
0.240230
1.019500
1.138700
-0.349610
-0.498050
-0.498050
-0.498050
-0.330080
-0.189450
-0.089844
-0.054688
-0.044922
-0.035156
-0.029297
-0.025391
-0.019531
-0.025391
-0.025391
-0.025391
-0.025391
-0.025391
-0.025391
-0.025391
-0.025391
-0.025391
-0.025391
-0.025391
-0.025391
-0.035156
-0.044922
-0.058594
-0.064453
-0.083984
-0.083984
-0.083984
-0.083984
-0.064453
-0.039062
-0.009766
0.025391
0.044922
0.050781
0.050781
0.031250
0.015625
0.005859
-0.009766
-0.013672
-0.009766
-0.009766
-0.003906
0.005859
0.009766
0.019531
0.031250
0.044922
0.050781
0.044922
0.050781
0.044922
0.050781
0.044922
0.041016
0.035156
0.031250
0.031250
0.025391
0.019531
0.019531
0.025391
0.041016
0.054688
0.054688
0.064453
0.070312
0.089844
0.076172
0.070312
0.054688
0.044922
0.031250
0.005859
-0.019531
-0.019531
-0.019531
-0.019531
-0.025391
-0.025391
-0.054688
0.095703
0.820310
1.179700
-0.048828
-0.498050
-0.498050
-0.498050
-0.353520
-0.189450
-0.099609
-0.064453
-0.044922
-0.039062
-0.025391
-0.019531
-0.019531
-0.019531
-0.019531
-0.019531
-0.019531
-0.019531
-0.019531
-0.013672
-0.019531
-0.009766
-0.003906
-0.003906
-0.009766
-0.019531
-0.019531
-0.035156
-0.039062
-0.044922
-0.048828
-0.048828
-0.044922
-0.029297
0.000000
0.031250
0.060547
0.080078
0.089844
0.085938
0.076172
0.070312
0.050781
0.044922
0.035156
0.031250
0.025391
0.019531
0.019531
0.025391
0.031250
0.031250
0.041016
0.044922
0.050781
0.044922
0.054688
0.060547
0.054688
0.054688
0.050781
0.050781
0.050781
0.044922
0.044922
0.041016
0.054688
0.076172
0.080078
0.085938
0.099609
0.095703
0.111330
0.099609
0.095703
0.080078
0.070312
0.044922
0.015625
0.005859
0.000000
-0.003906
-0.009766
-0.013672
-0.019531
-0.035156
0.349610
1.115200
1.160200
-0.363280
-0.498050
-0.498050
-0.443360
-0.259770
-0.119140
-0.048828
-0.025391
-0.013672
-0.003906
0.000000
0.005859
0.009766
0.015625
0.009766
0.005859
0.005859
0.015625
0.009766
0.009766
0.015625
0.019531
0.025391
0.019531
0.015625
0.005859
0.005859
-0.009766
-0.019531
-0.025391
-0.035156
-0.025391
-0.019531
-0.003906
0.025391
0.060547
0.089844
0.099609
0.105470
0.099609
0.080078
0.076172
0.064453
0.050781
0.044922
0.041016
0.041016
0.041016
0.050781
0.050781
0.060547
0.064453
0.076172
0.076172
0.076172
0.076172
0.080078
0.076172
0.076172
0.064453
0.064453
0.060547
0.060547
0.054688
0.050781
0.050781
0.054688
0.076172
0.080078
0.085938
0.099609
0.111330
0.121090
0.105470
0.099609
0.085938
0.070312
0.044922
0.015625
0.000000
-0.003906
0.000000
0.000000
-0.003906
-0.019531
-0.035156
0.259770
1.048800
1.173800
-0.339840
-0.498050
-0.498050
-0.474610
-0.294920
-0.144530
-0.058594
-0.035156
-0.019531
-0.019531
-0.009766
-0.003906
-0.003906
0.000000
0.000000
0.000000
0.000000
0.000000
0.000000
0.005859
0.005859
0.009766
0.005859
0.005859
0.005859
0.000000
-0.013672
-0.019531
-0.035156
-0.039062
-0.044922
-0.044922
-0.039062
-0.013672
0.015625
0.044922
0.080078
0.099609
0.099609
0.099609
0.085938
0.076172
0.064453
0.054688
0.050781
0.044922
0.044922
0.050781
0.054688
0.054688
0.064453
0.076172
0.076172
0.080078
0.080078
0.085938
0.076172
0.076172
0.076172
0.064453
0.070312
0.054688
0.050781
0.044922
0.041016
0.035156
0.041016
0.070312
0.085938
0.085938
0.099609
0.099609
0.111330
0.095703
0.080078
0.076172
0.054688
0.031250
0.000000
-0.013672
-0.013672
-0.013672
-0.013672
-0.003906
-0.009766
-0.044922
0.160160
0.919920
1.154300
-0.240230
-0.498050
-0.498050
-0.498050
-0.314450
-0.164060
-0.070312
-0.029297
-0.019531
-0.013672
-0.003906
0.005859
0.000000
0.005859
0.005859
0.000000
0.005859
0.009766
0.005859
0.005859
0.009766
0.015625
0.015625
0.009766
0.005859
0.005859
-0.009766
-0.019531
-0.035156
-0.044922
-0.054688
-0.048828
-0.044922
-0.029297
0.000000
0.035156
0.070312
0.080078
0.089844
0.085938
0.076172
0.060547
0.050781
0.050781
0.035156
0.031250
0.031250
0.035156
0.041016
0.044922
0.054688
0.064453
0.076172
0.076172
0.076172
0.076172
0.076172
0.070312
0.076172
0.050781
0.044922
0.050781
0.050781
0.041016
0.035156
0.031250
0.035156
0.054688
0.076172
0.076172
0.080078
0.076172
0.099609
0.099609
0.095703
0.060547
0.050781
0.031250
0.009766
-0.013672
-0.019531
-0.019531
-0.019531
-0.019531
-0.019531
-0.035156
0.134770
0.859380
1.115200
-0.244140
-0.498050
-0.498050
-0.498050
-0.363280
-0.205080
-0.089844
-0.044922
-0.039062
-0.029297
-0.013672
-0.003906
-0.013672
-0.013672
-0.013672
-0.009766
-0.009766
-0.019531
-0.009766
0.000000
0.005859
-0.003906
-0.003906
-0.019531
-0.013672
-0.019531
-0.019531
-0.035156
-0.044922
-0.048828
-0.058594
-0.058594
-0.064453
-0.054688
-0.019531
0.025391
0.054688
0.076172
0.080078
0.076172
0.060547
0.044922
0.031250
0.025391
0.015625
0.019531
0.025391
0.031250
0.041016
0.050781
0.054688
0.064453
0.089844
0.111330
0.121090
0.115230
0.144530
0.150390
0.140620
0.121090
0.105470
0.076172
0.044922
0.005859
-0.003906
-0.019531
-0.019531
-0.025391
-0.019531
-0.025391
-0.025391
-0.044922
-0.054688
0.628910
1.189500
0.099609
-0.498050
-0.498050
-0.498050
-0.404300
-0.228520
-0.115230
-0.070312
-0.054688
-0.044922
-0.039062
-0.035156
-0.029297
-0.029297
-0.025391
-0.029297
-0.029297
-0.029297
-0.035156
-0.035156
-0.025391
-0.029297
-0.025391
-0.029297
-0.029297
-0.029297
-0.035156
-0.044922
-0.048828
-0.054688
-0.058594
-0.054688
-0.054688
-0.029297
-0.003906
0.031250
0.050781
0.064453
0.064453
0.050781
0.031250
0.015625
0.009766
0.009766
0.031250
0.041016
0.054688
0.064453
0.070312
0.080078
0.070312
0.076172
0.076172
0.080078
0.060547
0.025391
0.005859
0.000000
-0.003906
-0.013672
-0.019531
-0.019531
-0.019531
-0.019531
-0.044922
-0.064453
0.529300
1.169900
0.179690
-0.488280
-0.498050
-0.498050
-0.378910
-0.205080
-0.093750
-0.048828
-0.035156
-0.025391
-0.019531
-0.019531
-0.013672
-0.003906
-0.009766
-0.003906
-0.013672
-0.009766
-0.003906
-0.003906
-0.003906
0.000000
0.000000
-0.003906
-0.003906
-0.009766
-0.019531
-0.019531
-0.025391
-0.035156
-0.029297
-0.025391
-0.013672
0.015625
0.044922
0.070312
0.089844
0.089844
0.076172
0.070312
0.050781
0.031250
0.025391
0.015625
0.015625
0.015625
0.015625
0.019531
0.019531
0.031250
0.035156
0.044922
0.050781
0.050781
0.050781
0.050781
0.050781
0.050781
0.044922
0.035156
0.035156
0.041016
0.031250
0.031250
0.031250
0.025391
0.019531
0.025391
0.025391
0.025391
0.019531
0.025391
0.019531
0.025391
0.019531
0.025391
0.025391
0.019531
0.019531
0.019531
0.015625
0.019531
0.015625
0.031250
0.054688
0.060547
0.076172
0.076172
0.095703
0.085938
0.089844
0.076172
0.060547
0.031250
0.005859
-0.019531
-0.025391
-0.029297
-0.025391
-0.029297
-0.048828
0.041016
0.679690
1.193400
0.089844
-0.498050
-0.498050
-0.498050
-0.378910
-0.214840
-0.109380
-0.070312
-0.054688
-0.044922
-0.035156
-0.029297
-0.025391
-0.025391
-0.025391
-0.025391
-0.019531
-0.025391
-0.019531
-0.019531
-0.019531
-0.019531
-0.019531
-0.019531
-0.019531
-0.025391
-0.035156
-0.044922
-0.054688
-0.064453
-0.064453
-0.064453
-0.064453
-0.048828
-0.025391
0.015625
0.050781
0.076172
0.095703
0.099609
0.099609
0.085938
0.076172
0.064453
0.050781
0.041016
0.035156
0.031250
0.035156
0.035156
0.041016
0.050781
0.054688
0.054688
0.070312
0.070312
0.064453
0.060547
0.060547
0.050781
0.050781
0.044922
0.035156
0.035156
0.031250
0.031250
0.031250
0.031250
0.025391
0.019531
0.019531
0.015625
0.015625
0.015625
0.031250
0.050781
0.054688
0.064453
0.076172
0.085938
0.089844
0.064453
0.054688
0.044922
0.019531
0.000000
-0.029297
-0.035156
-0.029297
-0.035156
-0.035156
-0.039062
-0.054688
0.210940
0.990230
1.134800
-0.333980
-0.498050
-0.498050
-0.498050
-0.314450
-0.173830
-0.083984
-0.054688
-0.044922
-0.035156
-0.025391
-0.025391
-0.019531
-0.019531
-0.019531
-0.019531
-0.019531
-0.019531
-0.019531
-0.019531
-0.019531
-0.013672
-0.013672
-0.013672
-0.019531
-0.029297
-0.044922
-0.054688
-0.070312
-0.083984
-0.089844
-0.093750
-0.089844
-0.080078
-0.044922
-0.003906
0.031250
0.050781
0.054688
0.054688
0.054688
0.044922
0.031250
0.025391
0.009766
0.009766
0.005859
0.009766
0.009766
0.015625
0.035156
0.050781
0.064453
0.080078
0.111330
0.115230
0.070312
0.044922
0.044922
0.031250
0.019531
0.025391
0.019531
0.015625
0.019531
-0.009766
-0.029297
0.660160
1.119100
-0.058594
-0.498050
-0.498050
-0.498050
-0.298830
-0.134770
-0.039062
-0.013672
0.000000
0.005859
0.009766
0.005859
0.005859
0.009766
0.009766
0.005859
0.005859
0.005859
0.009766
0.009766
0.005859
0.005859
0.005859
0.005859
-0.009766
-0.013672
-0.009766
-0.019531
-0.029297
-0.029297
-0.025391
-0.025391
-0.013672
0.009766
0.041016
0.076172
0.080078
0.085938
0.076172
0.060547
0.044922
0.031250
0.025391
0.025391
0.015625
0.031250
0.031250
0.035156
0.041016
0.050781
0.060547
0.089844
0.099609
0.105470
0.099609
0.115230
0.095703
0.089844
0.085938
0.080078
0.050781
0.015625
-0.003906
-0.013672
-0.019531
-0.013672
-0.019531
-0.019531
-0.025391
-0.035156
-0.048828
0.291020
1.039100
1.103500
-0.419920
-0.498050
-0.498050
-0.488280
-0.298830
-0.144530
-0.058594
-0.039062
-0.029297
-0.025391
-0.019531
-0.003906
0.005859
0.000000
0.000000
0.005859
0.000000
-0.013672
0.000000
0.005859
0.005859
0.005859
0.015625
0.009766
0.000000
0.005859
0.005859
-0.009766
-0.025391
-0.029297
-0.009766
0.000000
0.009766
0.044922
0.085938
0.099609
0.111330
0.105470
0.099609
0.076172
0.064453
0.050781
0.031250
0.031250
0.035156
0.041016
0.041016
0.050781
0.060547
0.064453
0.070312
0.076172
0.076172
0.076172
0.070312
0.070312
0.054688
0.050781
0.044922
0.041016
0.035156
0.035156
0.031250
0.031250
0.019531
0.015625
0.005859
0.005859
0.005859
-0.003906
-0.013672
-0.019531
0.000000
0.064453
0.099609
0.080078
0.060547
0.050781
0.025391
-0.019531
-0.044922
-0.048828
-0.054688
-0.054688
-0.048828
-0.044922
-0.064453
-0.083984
0.294920
1.128900
1.144500
-0.433590
-0.498050
-0.498050
-0.494140
-0.304690
-0.173830
-0.103520
-0.089844
-0.074219
-0.064453
-0.058594
-0.054688
-0.054688
-0.058594
-0.064453
-0.064453
-0.064453
-0.064453
-0.058594
-0.058594
-0.054688
-0.044922
-0.044922
-0.044922
-0.044922
-0.048828
-0.064453
-0.074219
-0.083984
-0.089844
-0.089844
-0.093750
-0.083984
-0.058594
-0.025391
0.009766
0.035156
0.050781
0.044922
0.050781
0.070312
0.095703
0.105470
0.064453
0.035156
0.025391
0.031250
0.031250
0.031250
0.019531
0.015625
0.019531
0.015625
0.019531
0.015625
0.015625
0.015625
0.005859
-0.035156
0.156250
0.974610
1.148400
-0.349610
-0.498050
-0.498050
-0.439450
-0.214840
-0.099609
-0.044922
-0.019531
-0.013672
-0.019531
-0.009766
-0.003906
-0.009766
-0.009766
0.000000
0.005859
0.000000
0.000000
0.005859
0.005859
0.005859
0.005859
0.005859
0.000000
-0.009766
-0.013672
-0.019531
-0.025391
-0.029297
-0.035156
-0.025391
-0.009766
0.025391
0.060547
0.089844
0.111330
0.105470
0.099609
0.089844
0.076172
0.064453
0.050781
0.050781
0.044922
0.044922
0.044922
0.050781
0.054688
0.060547
0.064453
0.070312
0.064453
0.064453
0.064453
0.060547
0.054688
0.050781
0.041016
0.041016
0.035156
0.031250
0.031250
0.031250
0.019531
0.015625
0.015625
0.015625
0.009766
0.009766
0.005859
0.005859
0.009766
0.005859
0.005859
0.000000
0.000000
0.000000
0.000000
-0.003906
-0.003906
-0.003906
0.000000
-0.003906
0.000000
0.000000
-0.003906
-0.003906
0.000000
0.000000
-0.003906
-0.009766
-0.009766
-0.009766
-0.009766
-0.009766
-0.003906
-0.003906
-0.009766
-0.009766
-0.003906
-0.003906
-0.009766
-0.009766
0.009766
0.031250
0.035156
0.041016
0.050781
0.070312
0.060547
0.064453
0.044922
0.019531
-0.003906
-0.025391
-0.039062
-0.044922
-0.044922
-0.035156
-0.048828
-0.064453
0.505860
1.214800
0.371090
-0.478520
-0.498050
-0.498050
-0.419920
-0.253910
-0.138670
-0.074219
-0.054688
-0.044922
-0.039062
-0.035156
-0.035156
-0.039062
-0.039062
-0.035156
-0.029297
-0.029297
-0.035156
-0.019531
-0.019531
-0.019531
-0.025391
-0.019531
-0.029297
-0.039062
-0.044922
-0.054688
-0.070312
-0.083984
-0.089844
-0.093750
-0.089844
-0.083984
-0.064453
-0.029297
0.009766
0.050781
0.076172
0.099609
0.111330
0.115230
0.105470
0.099609
0.085938
0.064453
0.064453
0.054688
0.060547
0.060547
0.076172
0.085938
0.099609
0.095703
0.099609
0.099609
0.105470
0.111330
0.099609
0.099609
0.076172
0.076172
0.080078
0.076172
0.080078
0.060547
0.060547
0.050781
0.050781
0.050781
0.054688
0.064453
0.070312
0.085938
0.095703
0.099609
0.105470
0.080078
0.085938
0.060547
0.041016
0.025391
0.005859
0.000000
-0.003906
-0.003906
-0.009766
-0.003906
-0.025391
0.076172
0.705080
1.160200
0.015625
-0.498050
-0.498050
-0.498050
-0.394530
-0.228520
-0.109380
-0.048828
-0.025391
-0.009766
-0.003906
-0.019531
-0.013672
-0.003906
-0.009766
0.000000
-0.013672
-0.003906
0.000000
0.000000
0.005859
0.000000
0.005859
0.000000
0.009766
0.000000
-0.025391
-0.029297
-0.048828
-0.054688
-0.064453
-0.064453
-0.064453
-0.070312
-0.035156
0.000000
0.035156
0.070312
0.076172
0.064453
0.054688
0.050781
0.035156
0.031250
0.019531
0.019531
0.015625
0.031250
0.035156
0.041016
0.044922
0.050781
0.054688
0.054688
0.060547
0.060547
0.050781
0.050781
0.041016
0.035156
0.031250
0.025391
0.031250
0.025391
0.025391
0.015625
0.019531
0.015625
0.015625
0.009766
0.005859
0.009766
0.005859
0.005859
0.005859
0.005859
0.000000
0.000000
0.005859
0.015625
0.031250
0.035156
0.035156
0.031250
0.041016
0.025391
0.031250
0.025391
0.019531
0.000000
-0.025391
-0.044922
-0.044922
-0.044922
-0.044922
-0.044922
-0.064453
0.130860
0.894530
1.173800
-0.189450
-0.498050
-0.498050
-0.498050
-0.353520
-0.199220
-0.103520
-0.070312
-0.058594
-0.048828
-0.044922
-0.039062
-0.035156
-0.039062
-0.029297
-0.025391
-0.025391
-0.029297
-0.029297
-0.029297
-0.029297
-0.025391
-0.019531
-0.029297
-0.029297
-0.039062
-0.044922
-0.058594
-0.070312
-0.074219
-0.083984
-0.089844
-0.083984
-0.083984
-0.058594
-0.019531
0.019531
0.044922
0.054688
0.064453
0.054688
0.050781
0.035156
0.019531
0.009766
0.005859
0.005859
0.005859
0.000000
0.005859
0.009766
0.015625
0.031250
0.035156
0.044922
0.050781
0.031250
0.031250
0.041016
0.035156
0.041016
0.025391
0.031250
0.025391
0.019531
0.025391
0.031250
0.041016
0.035156
0.019531
0.015625
0.019531
0.015625
0.025391
0.031250
0.035156
0.031250
0.031250
0.050781
0.070312
0.085938
0.095703
0.080078
0.089844
0.095703
0.085938
0.076172
0.070312
0.041016
0.031250
0.019531
0.031250
0.015625
0.019531
0.000000
-0.009766
0.205080
0.980470
1.244100
-0.179690
-0.498050
-0.498050
-0.498050
-0.324220
-0.164060
-0.070312
-0.019531
0.005859
0.009766
0.005859
0.019531
0.025391
0.009766
0.015625
0.009766
0.009766
0.015625
0.005859
0.025391
0.009766
0.015625
0.015625
0.005859
0.005859
0.015625
0.000000
-0.013672
-0.019531
-0.035156
-0.035156
-0.039062
-0.039062
-0.029297
-0.009766
0.035156
0.060547
0.085938
0.099609
0.095703
0.099609
0.076172
0.054688
0.050781
0.050781
0.050781
0.054688
0.070312
0.099609
0.105470
0.080078
0.076172
0.076172
0.064453
0.054688
0.054688
0.044922
0.050781
0.050781
0.031250
-0.003906
0.095703
0.849610
1.164100
-0.228520
-0.498050
-0.498050
-0.468750
-0.259770
-0.109380
-0.039062
-0.019531
-0.013672
-0.009766
-0.003906
-0.003906
0.000000
0.000000
0.000000
0.000000
-0.003906
-0.003906
-0.009766
-0.013672
-0.013672
-0.013672
-0.013672
-0.019531
-0.025391
-0.029297
-0.039062
-0.044922
-0.048828
-0.054688
-0.048828
-0.048828
-0.029297
0.000000
0.031250
0.050781
0.060547
0.054688
0.041016
0.025391
0.015625
0.005859
0.000000
-0.003906
-0.009766
0.000000
0.000000
0.005859
0.009766
0.025391
0.031250
0.035156
0.035156
0.041016
0.035156
0.035156
0.031250
0.025391
0.050781
0.099609
0.121090
0.121090
0.099609
0.095703
0.076172
0.050781
0.025391
0.009766
0.005859
-0.003906
-0.009766
-0.013672
-0.009766
-0.035156
-0.039062
0.708980
1.263700
0.166020
-0.498050
-0.498050
-0.498050
-0.375000
-0.199220
-0.103520
-0.064453
-0.048828
-0.044922
-0.044922
-0.044922
-0.029297
-0.025391
-0.039062
-0.044922
-0.048828
-0.044922
-0.039062
-0.044922
-0.044922
-0.029297
-0.019531
-0.025391
-0.029297
-0.025391
-0.035156
-0.039062
-0.039062
-0.029297
-0.003906
0.009766
0.035156
0.054688
0.099609
0.134770
0.140620
0.156250
0.144530
0.115230
0.080078
0.041016
0.015625
0.000000
-0.009766
-0.019531
-0.029297
-0.035156
-0.029297
-0.019531
-0.019531
-0.009766
-0.025391
0.060547
0.724610
1.080100
-0.064453
-0.498050
-0.498050
-0.498050
-0.294920
-0.115230
-0.029297
-0.009766
-0.003906
0.005859
0.009766
0.009766
0.015625
0.009766
0.015625
0.015625
0.009766
0.005859
0.015625
0.015625
0.015625
0.025391
0.031250
0.000000
-0.019531
-0.019531
-0.025391
-0.035156
-0.039062
-0.039062
-0.039062
-0.019531
0.009766
0.041016
0.060547
0.076172
0.060547
0.041016
0.044922
0.050781
0.050781
0.044922
0.050781
0.060547
0.064453
0.060547
0.064453
0.076172
0.076172
0.060547
0.050781
0.050781
0.050781
0.044922
0.035156
0.041016
0.031250
0.009766
0.005859
0.015625
0.009766
0.000000
0.005859
0.005859
0.005859
0.005859
-0.003906
-0.013672
0.000000
-0.009766
-0.009766
-0.009766
-0.003906
-0.003906
0.000000
-0.003906
0.000000
0.000000
0.000000
0.005859
0.000000
0.000000
0.000000
0.005859
0.005859
0.031250
0.019531
0.015625
0.031250
0.035156
0.050781
0.060547
0.085938
0.089844
0.076172
0.064453
0.050781
0.031250
0.000000
-0.029297
-0.039062
-0.019531
0.019531
0.044922
-0.019531
0.429690
1.154300
0.439450
-0.464840
-0.498050
-0.498050
-0.429690
-0.244140
-0.109380
-0.039062
-0.025391
-0.035156
0.000000
-0.029297
-0.039062
-0.025391
-0.019531
-0.025391
-0.019531
-0.013672
-0.013672
-0.003906
-0.003906
-0.009766
-0.009766
-0.009766
-0.013672
-0.019531
-0.025391
-0.035156
-0.044922
-0.054688
-0.058594
-0.054688
-0.064453
-0.058594
-0.044922
-0.009766
0.025391
0.060547
0.080078
0.099609
0.095703
0.089844
0.080078
0.060547
0.050781
0.044922
0.044922
0.031250
0.025391
0.041016
0.050781
0.064453
0.070312
0.076172
0.076172
0.070312
0.064453
0.060547
0.064453
0.064453
0.054688
0.050781
0.044922
0.041016
0.031250
0.041016
0.041016
0.035156
0.025391
0.031250
0.019531
0.019531
0.031250
0.019531
0.015625
0.019531
0.025391
0.031250
0.019531
0.031250
0.025391
0.025391
0.031250
0.050781
0.064453
0.076172
0.080078
0.099609
0.076172
0.070312
0.064453
0.054688
0.041016
0.015625
-0.009766
-0.019531
-0.019531
-0.003906
0.000000
-0.025391
0.156250
0.900390
1.134800
-0.263670
-0.498050
-0.498050
-0.498050
-0.353520
-0.199220
-0.093750
-0.048828
-0.029297
-0.029297
-0.035156
-0.019531
-0.019531
-0.003906
-0.003906
-0.009766
-0.013672
-0.013672
-0.019531
-0.009766
0.005859
0.009766
-0.009766
-0.003906
-0.019531
-0.009766
-0.019531
-0.044922
-0.058594
-0.064453
-0.070312
-0.083984
-0.093750
-0.103520
-0.054688
0.000000
0.015625
0.035156
0.050781
0.064453
0.050781
0.044922
0.035156
0.025391
0.031250
0.035156
0.031250
0.035156
0.041016
0.050781
0.070312
0.070312
0.064453
0.076172
0.076172
0.085938
0.076172
0.050781
0.060547
0.050781
0.050781
0.050781
0.041016
0.031250
0.041016
0.031250
0.050781
0.031250
0.019531
0.031250
0.025391
0.031250
0.031250
0.025391
0.031250
0.009766
0.009766
0.025391
0.015625
0.009766
0.015625
0.015625
0.019531
0.041016
0.060547
0.054688
0.054688
0.070312
0.076172
0.060547
0.064453
0.050781
0.035156
0.015625
-0.003906
-0.019531
-0.019531
-0.025391
-0.019531
-0.039062
0.121090
0.814450
1.115200
-0.103520
-0.498050
-0.498050
-0.498050
-0.375000
-0.218750
-0.103520
-0.064453
-0.048828
-0.039062
-0.035156
-0.029297
-0.035156
-0.035156
-0.029297
-0.025391
-0.009766
-0.019531
-0.025391
-0.013672
-0.035156
-0.029297
-0.039062
-0.044922
-0.044922
-0.054688
-0.058594
-0.064453
-0.074219
-0.089844
-0.093750
-0.089844
-0.083984
-0.089844
-0.074219
-0.054688
-0.013672
0.031250
0.076172
0.099609
0.080078
0.076172
0.064453
0.050781
0.054688
0.044922
0.050781
0.044922
0.050781
0.031250
0.009766
0.005859
0.025391
0.035156
0.054688
0.009766
-0.003906
0.019531
0.000000
-0.035156
-0.048828
0.300780
1.003900
0.410160
-0.488280
-0.498050
-0.498050
-0.378910
-0.189450
-0.064453
-0.013672
-0.019531
-0.009766
-0.009766
0.000000
0.005859
0.019531
0.019531
0.025391
0.015625
0.015625
0.031250
0.015625
0.015625
0.015625
0.031250
0.044922
0.035156
0.025391
0.000000
-0.019531
-0.025391
-0.025391
-0.025391
-0.019531
-0.003906
0.031250
0.070312
0.095703
0.105470
0.089844
0.095703
0.085938
0.080078
0.070312
0.070312
0.054688
0.044922
0.044922
0.050781
0.050781
0.041016
0.041016
0.050781
0.064453
0.076172
0.064453
0.076172
0.070312
0.076172
0.070312
0.060547
0.060547
0.050781
0.050781
0.050781
0.044922
0.050781
0.041016
0.041016
0.054688
0.035156
0.031250
0.031250
0.031250
0.035156
0.025391
0.031250
0.031250
0.031250
0.035156
0.031250
0.041016
0.060547
0.070312
0.070312
0.076172
0.076172
0.076172
0.064453
0.070312
0.060547
0.050781
0.035156
0.009766
0.000000
-0.003906
0.005859
-0.009766
-0.035156
0.080078
0.765620
1.164100
0.070312
-0.488280
-0.498050
-0.498050
-0.359380
-0.189450
-0.089844
-0.048828
-0.029297
-0.013672
0.005859
0.005859
-0.009766
-0.009766
-0.003906
0.000000
-0.003906
0.000000
0.005859
0.009766
0.005859
0.000000
0.005859
-0.003906
-0.009766
-0.009766
-0.009766
-0.019531
-0.029297
-0.058594
-0.064453
-0.064453
-0.058594
-0.048828
-0.025391
0.015625
0.050781
0.080078
0.095703
0.099609
0.080078
0.076172
0.085938
0.099609
0.099609
0.089844
0.115230
0.121090
0.121090
0.111330
0.121090
0.085938
0.054688
0.035156
0.019531
0.005859
0.005859
0.000000
-0.019531
-0.019531
0.000000
-0.019531
-0.058594
0.111330
0.849610
1.035200
-0.398440
-0.498050
-0.498050
-0.464840
-0.259770
-0.134770
-0.064453
-0.044922
-0.035156
-0.019531
-0.019531
-0.019531
0.005859
0.005859
0.005859
0.005859
0.000000
0.005859
0.009766
0.009766
0.015625
0.009766
0.015625
0.009766
0.005859
0.000000
-0.009766
-0.009766
-0.019531
-0.019531
-0.025391
-0.009766
0.009766
0.054688
0.076172
0.099609
0.099609
0.089844
0.085938
0.076172
0.064453
0.044922
0.044922
0.031250
