0.345100
0.364710
0.384310
0.374510
0.400000
0.429410
0.449020
0.439220
0.464710
0.480390
0.505880
0.545100
0.600000
0.619610
0.635290
0.650980
0.686270
0.690200
0.696080
0.670590
0.629410
0.584310
0.525490
0.460780
0.429410
0.390200
0.335290
0.309800
0.294120
0.268630
0.268630
0.278430
0.258820
0.249020
0.258820
0.274510
0.284310
0.300000
0.294120
0.300000
0.313730
0.313730
0.300000
0.284310
0.319610
0.303920
0.290200
0.323530
0.339220
0.345100
0.319610
0.319610
0.335290
0.319610
0.364710
0.390200
0.403920
0.390200
0.339220
0.349020
0.345100
0.339220
0.349020
0.339220
0.335290
0.323530
0.300000
0.245100
0.188240
0.419610
1.021600
1.321600
0.870590
0.474510
0.313730
0.294120
0.339220
0.335290
0.319610
0.329410
0.345100
0.364710
0.380390
0.384310
0.390200
0.400000
0.403920
0.429410
0.460780
0.474510
0.494120
0.519610
0.539220
0.574510
0.609800
0.619610
0.650980
0.670590
0.696080
0.690200
0.670590
0.650980
0.596080
0.539220
0.474510
0.400000
0.354900
0.319610
0.290200
0.284310
0.268630
0.300000
0.290200
0.290200
0.294120
0.313730
0.284310
0.268630
0.290200
0.284310
0.290200
0.290200
0.313730
0.303920
0.313730
0.323530
0.309800
0.309800
0.303920
0.313730
0.309800
0.329410
0.358820
0.339220
0.319610
0.319610
0.354900
0.380390
0.400000
0.403920
0.390200
0.358820
0.364710
0.345100
0.323530
0.335290
0.354900
0.329410
0.313730
0.290200
0.229410
0.364710
0.911760
1.302000
0.950980
0.529410
0.323530
0.278430
0.329410
0.354900
0.339220
0.358820
0.364710
0.364710
0.358820
0.384310
0.400000
0.415690
0.445100
0.454900
0.470590
0.484310
0.505880
0.525490
0.560780
0.580390
0.619610
0.635290
0.654900
0.705880
0.709800
0.715690
0.705880
0.650980
0.609800
0.554900
0.494120
0.435290
0.384310
0.335290
0.313730
0.309800
0.313730
0.294120
0.290200
0.278430
0.268630
0.300000
0.313730
0.303920
0.290200
0.303920
0.319610
0.313730
0.313730
0.339220
0.345100
0.339220
0.319610
0.335290
0.329410
0.329410
0.345100
0.349020
0.374510
0.394120
0.390200
0.390200
0.390200
0.384310
0.364710
0.358820
0.345100
0.329410
0.329410
0.319610
0.313730
0.335290
0.268630
0.229410
0.539220
1.105900
1.298000
0.696080
0.374510
0.245100
0.290200
0.335290
0.354900
0.358820
0.358820
0.358820
0.370590
0.384310
0.400000
0.415690
0.435290
0.439220
0.454900
0.480390
0.484310
0.509800
0.539220
0.564710
0.600000
0.641180
0.680390
0.696080
0.715690
0.721570
0.750980
0.715690
0.645100
0.580390
0.515690
0.445100
0.384310
0.335290
0.303920
0.290200
0.284310
0.284310
0.278430
0.274510
0.268630
0.278430
0.284310
0.278430
0.290200
0.294120
0.300000
0.313730
0.313730
0.319610
0.319610
0.319610
0.323530
0.323530
0.323530
0.329410
0.335290
0.339220
0.354900
0.380390
0.384310
0.380390
0.384310
0.380390
0.374510
0.358820
0.345100
0.345100
0.358820
0.349020
0.345100
0.309800
0.239220
0.203920
0.539220
1.166700
1.388200
0.766670
0.364710
0.254900
0.300000
0.335290
0.349020
0.339220
0.335290
0.358820
0.380390
0.370590
0.394120
0.429410
0.435290
0.435290
0.439220
0.454900
0.480390
0.505880
0.535290
0.584310
0.605880
0.645100
0.654900
0.670590
0.680390
0.709800
0.715690
0.705880
0.660780
0.600000
0.519610
0.445100
0.403920
0.345100
0.290200
0.278430
0.290200
0.264710
0.254900
0.254900
0.268630
0.274510
0.278430
0.274510
0.274510
0.278430
0.294120
0.300000
0.294120
0.300000
0.294120
0.300000
0.294120
0.313730
0.323530
0.329410
0.323530
0.354900
0.370590
0.380390
0.370590
0.370590
0.364710
0.349020
0.319610
0.313730
0.300000
0.309800
0.309800
0.300000
0.233330
0.139220
0.309800
0.947060
1.407800
0.996080
0.464710
0.274510
0.249020
0.313730
0.329410
0.339220
0.335290
0.335290
0.345100
0.354900
0.370590
0.390200
0.415690
0.435290
0.415690
0.435290
0.460780
0.500000
0.525490
0.560780
0.590200
0.619610
0.641180
0.654900
0.680390
0.690200
0.705880
0.690200
0.650980
0.590200
0.535290
0.449020
0.390200
0.345100
0.309800
0.303920
0.294120
0.278430
0.274510
0.278430
0.233330
0.245100
0.245100
0.258820
0.268630
0.274510
0.290200
0.284310
0.278430
0.290200
0.300000
0.303920
0.300000
0.313730
0.313730
0.329410
0.335290
0.354900
0.358820
0.364710
0.354900
0.339220
0.329410
0.323530
0.323530
0.313730
0.313730
0.313730
0.335290
0.339220
0.229410
0.149020
0.435290
1.096100
1.343100
0.776470
0.354900
0.239220
0.290200
0.345100
0.358820
0.329410
0.323530
0.339220
0.345100
0.358820
0.380390
0.390200
0.384310
0.415690
0.435290
0.435290
0.480390
0.515690
0.539220
0.580390
0.596080
0.615690
0.629410
0.660780
0.680390
0.690200
0.680390
0.664710
0.641180
0.574510
0.500000
0.439220
0.390200
0.345100
0.309800
0.294120
0.278430
0.268630
0.258820
0.268630
0.290200
0.274510
0.268630
0.258820
0.274510
0.278430
0.290200
0.290200
0.278430
0.290200
0.313730
0.313730
0.313730
0.313730
0.313730
0.335290
0.364710
0.370590
0.358820
0.358820
0.339220
0.323530
0.313730
0.323530
0.335290
0.339220
0.319610
0.300000
0.229410
0.143140
0.354900
1.002000
1.311800
0.800000
0.390200
0.268630
0.294120
0.345100
0.358820
0.339220
0.345100
0.354900
0.364710
0.374510
0.364710
0.384310
0.409800
0.435290
0.435290
0.439220
0.454900
0.474510
0.519610
0.545100
0.584310
0.641180
0.664710
0.680390
0.654900
0.650980
0.664710
0.645100
0.619610
0.564710
0.494120
0.439220
0.374510
0.339220
0.309800
0.268630
0.268630
0.274510
0.290200
0.300000
0.274510
0.264710
0.245100
0.249020
0.254900
0.245100
0.284310
0.268630
0.274510
0.278430
0.268630
0.290200
0.303920
0.309800
0.313730
0.309800
0.300000
0.313730
0.349020
0.354900
0.358820
0.339220
0.345100
0.339220
0.354900
0.329410
0.309800
0.303920
0.313730
0.309800
0.290200
0.229410
0.158820
0.300000
0.870590
1.298000
0.901960
0.460780
0.284310
0.249020
0.294120
0.319610
0.329410
0.345100
0.345100
0.358820
0.370590
0.390200
0.384310
0.390200
0.403920
0.419610
0.435290
0.460780
0.509800
0.525490
0.554900
0.609800
0.596080
0.600000
0.625490
0.670590
0.686270
0.676470
0.654900
0.619610
0.564710
0.494120
0.454900
0.435290
0.380390
0.319610
0.300000
0.278430
0.278430
0.268630
0.268630
0.274510
0.309800
0.319610
0.278430
0.268630
0.268630
0.264710
0.294120
0.313730
0.309800
0.303920
0.284310
0.303920
0.319610
0.300000
0.290200
0.313730
0.345100
0.329410
0.335290
0.358820
0.349020
0.384310
0.394120
0.354900
0.349020
0.339220
0.313730
0.300000
0.319610
0.329410
0.323530
0.329410
0.294120
0.223530
0.374510
0.941180
1.256900
0.831370
0.435290
0.300000
0.284310
0.339220
0.339220
0.335290
0.313730
0.339220
0.358820
0.354900
0.384310
0.400000
0.419610
0.400000
0.403920
0.390200
0.445100
0.480390
0.505880
0.535290
0.580390
0.600000
0.629410
0.650980
0.670590
0.676470
0.650980
0.654900
0.664710
0.564710
0.545100
0.474510
0.415690
0.354900
0.335290
0.300000
0.284310
0.284310
0.268630
0.278430
0.303920
0.290200
0.294120
0.284310
0.313730
0.284310
0.264710
0.309800
0.309800
0.290200
0.300000
0.290200
0.319610
0.300000
0.323530
0.313730
0.329410
0.323530
0.313730
0.345100
0.370590
0.380390
0.390200
0.394120
0.384310
0.358820
0.335290
0.329410
0.339220
0.300000
0.329410
0.339220
0.345100
0.284310
0.223530
0.309800
0.815690
1.311800
1.031400
0.545100
0.323530
0.274510
0.339220
0.358820
0.345100
0.335290
0.345100
0.384310
0.394120
0.374510
0.370590
0.400000
0.409800
0.415690
0.429410
0.460780
0.494120
0.519610
0.535290
0.564710
0.590200
0.615690
0.660780
0.676470
0.664710
0.670590
0.660780
0.641180
0.600000
0.545100
0.474510
0.419610
0.380390
0.345100
0.309800
0.290200
0.290200
0.290200
0.290200
0.290200
0.300000
0.294120
0.290200
0.284310
0.290200
0.300000
0.309800
0.300000
0.303920
0.294120
0.300000
0.300000
0.313730
0.323530
0.313730
0.313730
0.345100
0.339220
0.329410
0.354900
0.370590
0.390200
0.400000
0.390200
0.394120
0.370590
0.354900
0.358820
0.335290
0.335290
0.349020
0.345100
0.349020
0.309800
0.254900
0.213730
0.615690
1.166700
1.311800
0.676470
0.409800
0.303920
0.335290
0.374510
0.384310
0.349020
0.354900
0.364710
0.384310
0.400000
0.409800
0.409800
0.429410
0.454900
0.460780
0.464710
0.494120
0.525490
0.535290
0.584310
0.609800
0.629410
0.664710
0.664710
0.705880
0.690200
0.686270
0.690200
0.641180
0.596080
0.550980
0.470590
0.394120
0.354900
0.335290
0.313730
0.278430
0.268630
0.290200
0.294120
0.284310
0.290200
0.284310
0.284310
0.290200
0.294120
0.309800
0.313730
0.323530
0.319610
0.323530
0.319610
0.323530
0.319610
0.339220
0.339220
0.349020
0.358820
0.370590
0.380390
0.384310
0.400000
0.425490
0.403920
0.380390
0.358820
0.345100
0.339220
0.345100
0.339220
0.339220
0.335290
0.294120
0.258820
0.245100
0.709800
1.217600
1.252900
0.550980
0.335290
0.258820
0.313730
0.354900
0.358820
0.345100
0.380390
0.394120
0.390200
0.400000
0.409800
0.429410
0.445100
0.454900
0.474510
0.490200
0.515690
0.535290
0.570590
0.596080
0.625490
0.654900
0.676470
0.696080
0.705880
0.715690
0.696080
0.680390
0.629410
0.580390
0.529410
0.454900
0.390200
0.335290
0.319610
0.309800
0.294120
0.294120
0.294120
0.274510
0.268630
0.274510
0.278430
0.278430
0.300000
0.294120
0.300000
0.309800
0.313730
0.335290
0.345100
0.313730
0.319610
0.313730
0.313730
0.309800
0.309800
0.329410
0.339220
0.354900
0.384310
0.390200
0.403920
0.394120
0.374510
0.364710
0.349020
0.335290
0.313730
0.309800
0.313730
0.329410
0.339220
0.274510
0.209800
0.403920
1.002000
1.378400
0.880390
0.419610
0.249020
0.245100
0.319610
0.335290
0.335290
0.323530
0.345100
0.370590
0.384310
0.380390
0.390200
0.403920
0.409800
0.425490
0.464710
0.490200
0.505880
0.539220
0.550980
0.564710
0.580390
0.609800
0.641180
0.664710
0.680390
0.670590
0.664710
0.650980
0.600000
0.535290
0.464710
0.409800
0.358820
0.313730
0.290200
0.268630
0.268630
0.278430
0.268630
0.284310
0.290200
0.290200
0.274510
0.268630
0.278430
0.274510
0.268630
0.268630
0.303920
0.313730
0.329410
0.309800
0.300000
0.303920
0.300000
0.313730
0.313730
0.303920
0.303920
0.313730
0.335290
0.319610
0.364710
0.380390
0.409800
0.400000
0.358820
0.345100
0.370590
0.339220
0.323530
0.313730
0.313730
0.329410
0.335290
0.233330
0.188240
0.550980
1.147100
1.337300
0.721570
0.370590
0.258820
0.303920
0.323530
0.313730
0.345100
0.370590
0.380390
0.374510
0.384310
0.370590
0.394120
0.384310
0.425490
0.460780
0.480390
0.494120
0.519610
0.564710
0.560780
0.584310
0.605880
0.645100
0.670590
0.690200
0.690200
0.664710
0.670590
0.635290
0.580390
0.529410
0.470590
0.390200
0.339220
0.313730
0.303920
0.284310
0.268630
0.264710
0.284310
0.274510
0.268630
0.303920
0.300000
0.309800
0.274510
0.294120
0.319610
0.303920
0.313730
0.290200
0.290200
0.309800
0.290200
0.309800
0.335290
0.313730
0.313730
0.313730
0.313730
0.323530
0.335290
0.349020
0.370590
0.390200
0.370590
0.390200
0.384310
0.358820
0.380390
0.364710
0.319610
0.300000
0.313730
0.323530
0.335290
0.339220
0.239220
0.203920
0.654900
1.227500
1.337300
0.645100
0.409800
0.300000
0.339220
0.349020
0.335290
0.329410
0.319610
0.339220
0.370590
0.358820
0.390200
0.384310
0.403920
0.409800
0.439220
0.454900
0.474510
0.515690
0.550980
0.590200
0.596080
0.600000
0.629410
0.635290
0.696080
0.700000
0.635290
0.650980
0.625490
0.584310
0.529410
0.445100
0.370590
0.319610
0.300000
0.290200
0.300000
0.303920
0.278430
0.284310
0.268630
0.258820
0.274510
0.290200
0.278430
0.268630
0.268630
0.290200
0.274510
0.249020
0.335290
0.329410
0.358820
0.313730
0.313730
0.278430
0.268630
0.284310
0.303920
0.313730
0.319610
0.313730
0.319610
0.303920
0.354900
0.358820
0.403920
0.390200
0.374510
0.374510
0.384310
0.394120
0.349020
0.313730
0.303920
0.313730
0.300000
0.268630
0.219610
0.339220
0.905880
1.347100
0.970590
0.509800
0.313730
0.274510
0.339220
0.354900
0.358820
0.339220
0.358820
0.364710
0.339220
0.354900
0.374510
0.403920
0.409800
0.445100
0.464710
0.435290
0.449020
0.505880
0.529410
0.545100
0.570590
0.615690
0.629410
0.654900
0.641180
0.645100
0.670590
0.664710
0.629410
0.584310
0.525490
0.454900
0.374510
0.323530
0.274510
0.254900
0.274510
0.278430
0.268630
0.274510
0.268630
0.284310
0.300000
0.303920
0.290200
0.284310
0.284310
0.290200
0.294120
0.290200
0.294120
0.303920
0.313730
0.309800
0.303920
0.294120
0.300000
0.303920
0.313730
0.329410
0.335290
0.339220
0.335290
0.349020
0.374510
0.384310
0.358820
0.349020
0.339220
0.335290
0.339220
0.323530
0.313730
0.323530
0.313730
0.290200
0.258820
0.200000
0.415690
0.982350
1.276500
0.835290
0.445100
0.268630
0.254900
0.319610
0.335290
0.329410
0.345100
0.339220
0.345100
0.380390
0.400000
0.403920
0.394120
0.409800
0.435290
0.445100
0.470590
0.494120
0.529410
0.574510
0.590200
0.625490
0.635290
0.645100
0.664710
0.676470
0.680390
0.670590
0.650980
0.605880
0.539220
0.490200
0.415690
0.358820
0.345100
0.329410
0.284310
0.254900
0.245100
0.268630
0.268630
0.284310
0.300000
0.290200
0.290200
0.284310
0.284310
0.290200
0.303920
0.284310
0.290200
0.303920
0.300000
0.313730
0.300000
0.313730
0.319610
0.313730
0.339220
0.339220
0.329410
0.339220
0.364710
0.394120
0.380390
0.358820
0.358820
0.354900
0.358820
0.339220
0.313730
0.319610
0.313730
0.335290
0.349020
0.300000
0.264710
0.345100
0.786270
1.252900
1.021600
0.584310
0.384310
0.278430
0.319610
0.335290
0.335290
0.335290
0.339220
0.358820
0.370590
0.384310
0.415690
0.409800
0.445100
0.439220
0.439220
0.454900
0.474510
0.519610
0.550980
0.570590
0.600000
0.625490
0.660780
0.676470
0.690200
0.705880
0.690200
0.670590
0.629410
0.564710
0.500000
0.425490
0.384310
0.354900
0.309800
0.290200
0.274510
0.264710
0.258820
0.268630
0.268630
0.268630
0.278430
0.284310
0.290200
0.300000
0.284310
0.303920
0.313730
0.313730
0.313730
0.313730
0.319610
0.294120
0.303920
0.313730
0.319610
0.309800
0.319610
0.335290
0.345100
0.354900
0.370590
0.380390
0.380390
0.384310
0.358820
0.358820
0.358820
0.345100
0.339220
0.329410
0.319610
0.339220
0.329410
0.274510
0.200000
0.415690
0.970590
1.337300
0.896080
0.460780
0.290200
0.268630
0.319610
0.345100
0.335290
0.339220
0.349020
0.354900
0.390200
0.403920
0.409800
0.429410
0.425490
0.435290
0.449020
0.470590
0.490200
0.519610
0.560780
0.590200
0.629410
0.650980
0.686270
0.700000
0.705880
0.690200
0.680390
0.676470
0.635290
0.570590
0.505880
0.415690
0.364710
0.323530
0.300000
0.290200
0.274510
0.268630
0.278430
0.274510
0.268630
0.274510
0.290200
0.294120
0.290200
0.313730
0.309800
0.300000
0.294120
0.323530
0.319610
0.309800
0.313730
0.303920
0.313730
0.329410
0.323530
0.319610
0.313730
0.319610
0.339220
0.349020
0.370590
0.390200
0.394120
0.384310
0.400000
0.380390
0.364710
0.354900
0.349020
0.354900
0.309800
0.303920
0.319610
0.290200
0.223530
0.290200
0.766670
1.307800
1.327500
0.584310
0.329410
0.278430
0.319610
0.323530
0.319610
0.349020
0.374510
0.384310
0.384310
0.400000
0.370590
0.370590
0.390200
0.409800
0.425490
0.445100
0.464710
0.515690
0.529410
0.554900
0.545100
0.609800
0.670590
0.705880
0.721570
0.690200
0.664710
0.635290
0.560780
0.550980
0.500000
0.409800
0.339220
0.303920
0.264710
0.284310
0.309800
0.278430
0.284310
0.249020
0.209800
0.203920
0.200000
0.254900
0.254900
0.233330
0.268630
0.290200
0.284310
0.264710
0.284310
0.300000
0.219610
0.245100
0.268630
0.233330
0.223530
0.309800
0.313730
0.300000
0.274510
0.300000
0.329410
0.370590
0.364710
0.370590
0.319610
0.294120
0.309800
0.309800
0.313730
0.323530
0.268630
0.319610
0.254900
0.223530
0.188240
0.258820
0.786270
1.343100
1.092200
0.560780
0.303920
0.254900
0.335290
0.335290
0.290200
0.303920
0.339220
0.329410
0.354900
0.364710
0.374510
0.409800
0.435290
0.419610
0.460780
0.464710
0.505880
0.539220
0.545100
0.564710
0.596080
0.641180
0.625490
0.690200
0.709800
0.715690
0.721570
0.686270
0.615690
0.564710
0.539220
0.480390
0.403920
0.323530
0.294120
0.284310
0.254900
0.309800
0.335290
0.345100
0.313730
0.300000
0.268630
0.258820
0.274510
0.319610
0.313730
0.339220
0.329410
0.319610
0.358820
0.349020
0.339220
0.345100
0.339220
0.323530
0.309800
0.335290
0.309800
0.374510
0.370590
0.380390
0.364710
0.394120
0.415690
0.419610
0.400000
0.390200
0.354900
0.349020
0.380390
0.370590
0.335290
0.374510
0.384310
0.329410
0.239220
0.335290
0.901960
1.382400
1.031400
0.535290
0.354900
0.335290
0.380390
0.358820
0.358820
0.354900
0.374510
0.400000
0.394120
0.435290
0.384310
0.415690
0.419610
0.435290
0.474510
0.494120
0.515690
0.539220
0.574510
0.580390
0.600000
0.629410
0.690200
0.709800
0.725490
0.735290
0.721570
0.670590
0.619610
0.570590
0.509800
0.445100
0.374510
0.339220
0.313730
0.294120
0.303920
0.290200
0.290200
0.290200
0.303920
0.309800
0.313730
0.329410
0.339220
0.313730
0.309800
0.313730
0.329410
0.323530
0.329410
0.313730
0.313730
0.303920
0.313730
0.335290
0.339220
0.339220
0.364710
0.354900
0.349020
0.358820
0.384310
0.400000
0.409800
0.400000
0.384310
0.390200
0.370590
0.345100
0.345100
0.345100
0.358820
0.370590
0.349020
0.313730
0.264710
0.239220
0.745100
1.282400
1.327500
0.629410
0.384310
0.323530
0.358820
0.358820
0.345100
0.354900
0.364710
0.384310
0.415690
0.425490
0.409800
0.409800
0.435290
0.449020
0.454900
0.474510
0.525490
0.535290
0.554900
0.580390
0.609800
0.641180
0.664710
0.696080
0.700000
0.705880
0.690200
0.660780
0.641180
0.590200
0.509800
0.449020
0.425490
0.370590
0.323530
0.313730
0.284310
0.274510
0.278430
0.284310
0.284310
0.294120
0.309800
0.278430
0.284310
0.284310
0.290200
0.303920
0.319610
0.323530
0.313730
0.313730
0.323530
0.354900
0.358820
0.323530
0.319610
0.329410
0.323530
0.339220
0.345100
0.349020
0.374510
0.384310
0.384310
0.380390
0.374510
0.364710
0.349020
0.358820
0.339220
0.323530
0.335290
0.339220
0.354900
0.294120
0.245100
0.390200
0.931370
1.307800
0.901960
0.474510
0.284310
0.245100
0.303920
0.354900
0.358820
0.364710
0.374510
0.384310
0.374510
0.384310
0.390200
0.415690
0.435290
0.460780
0.464710
0.474510
0.500000
0.519610
0.545100
0.580390
0.605880
0.645100
0.676470
0.690200
0.705880
0.715690
0.696080
0.690200
0.635290
0.574510
0.494120
0.425490
0.358820
0.309800
0.284310
0.268630
0.274510
0.258820
0.254900
0.245100
0.239220
0.245100
0.264710
0.268630
0.278430
0.294120
0.290200
0.274510
0.274510
0.284310
0.294120
0.290200
0.300000
0.294120
0.290200
0.309800
0.323530
0.303920
0.329410
0.313730
0.329410
0.354900
0.349020
0.364710
0.370590
0.380390
0.370590
0.358820
0.349020
0.339220
0.319610
0.313730
0.329410
0.335290
0.349020
0.339220
0.278430
0.219610
0.313730
0.845100
1.388200
1.092200
0.529410
0.284310
0.239220
0.294120
0.339220
0.339220
0.335290
0.339220
0.339220
0.358820
0.364710
0.380390
0.415690
0.435290
0.445100
0.449020
0.480390
0.500000
0.529410
0.550980
0.564710
0.580390
0.609800
0.641180
0.660780
0.676470
0.676470
0.690200
0.680390
0.645100
0.580390
0.515690
0.449020
0.400000
0.335290
0.300000
0.284310
0.274510
0.254900
0.264710
0.268630
0.278430
0.274510
0.268630
0.274510
0.268630
0.294120
0.303920
0.290200
0.284310
0.278430
0.268630
0.303920
0.313730
0.294120
0.300000
0.313730
0.303920
0.303920
0.309800
0.294120
0.290200
0.319610
0.313730
0.339220
0.339220
0.349020
0.349020
0.358820
0.364710
0.354900
0.339220
0.345100
0.349020
0.313730
0.329410
0.345100
0.329410
0.278430
0.213730
0.188240
0.715690
1.282400
1.362700
0.670590
0.370590
0.264710
0.303920
0.323530
0.319610
0.354900
0.364710
0.380390
0.384310
0.380390
0.390200
0.380390
0.384310
0.400000
0.429410
0.474510
0.470590
0.505880
0.525490
0.554900
0.596080
0.590200
0.629410
0.660780
0.686270
0.690200
0.700000
0.690200
0.635290
0.580390
0.539220
0.474510
0.390200
0.354900
0.313730
0.284310
0.268630
0.284310
0.284310
0.274510
0.268630
0.278430
0.290200
0.268630
0.274510
0.284310
0.300000
0.309800
0.294120
0.278430
0.268630
0.294120
0.313730
0.309800
0.323530
0.335290
0.303920
0.323530
0.339220
0.323530
0.313730
0.329410
0.339220
0.329410
0.354900
0.384310
0.384310
0.380390
0.354900
0.349020
0.335290
0.364710
0.374510
0.354900
0.329410
0.339220
0.354900
0.358820
0.254900
0.219610
0.480390
1.096100
1.321600
0.821570
0.445100
0.294120
0.345100
0.349020
0.339220
0.345100
0.319610
0.345100
0.335290
0.394120
0.415690
0.384310
0.400000
0.415690
0.409800
0.429410
0.454900
0.525490
0.550980
0.554900
0.580390
0.600000
0.625490
0.615690
0.664710
0.670590
0.686270
0.696080
0.650980
0.590200
0.560780
0.505880
0.439220
0.354900
0.329410
0.300000
0.239220
0.254900
0.284310
0.300000
0.278430
0.278430
0.268630
0.268630
0.284310
0.323530
0.303920
0.290200
0.284310
0.309800
0.329410
0.294120
0.323530
0.335290
0.303920
0.294120
0.323530
0.313730
0.335290
0.339220
0.335290
0.323530
0.329410
0.309800
0.370590
0.364710
0.384310
0.384310
0.384310
0.364710
0.345100
0.380390
0.329410
0.358820
0.354900
0.358820
0.335290
0.354900
0.294120
0.209800
0.290200
0.825490
1.337300
1.096100
0.564710
0.329410
0.290200
0.303920
0.335290
0.370590
0.354900
0.370590
0.358820
0.370590
0.374510
0.358820
0.394120
0.380390
0.460780
0.480390
0.480390
0.439220
0.490200
0.529410
0.554900
0.596080
0.635290
0.654900
0.645100
0.660780
0.676470
0.676470
0.664710
0.670590
0.580390
0.525490
0.435290
0.374510
0.323530
0.313730
0.303920
0.290200
0.300000
0.313730
0.300000
0.290200
0.278430
0.268630
0.258820
0.254900
0.290200
0.300000
0.313730
0.313730
0.309800
0.303920
0.290200
0.284310
0.313730
0.303920
0.294120
0.303920
0.339220
0.323530
0.323530
0.313730
0.313730
0.319610
0.339220
0.345100
0.354900
0.384310
0.390200
0.374510
0.358820
0.349020
0.354900
0.323530
0.323530
0.313730
0.313730
0.319610
0.268630
0.223530
0.290200
0.790200
1.292200
1.076500
0.590200
0.364710
0.294120
0.339220
0.329410
0.339220
0.358820
0.349020
0.354900
0.345100
0.370590
0.374510
0.384310
0.419610
0.445100
0.480390
0.505880
0.484310
0.505880
0.525490
0.570590
0.600000
0.615690
0.660780
0.670590
0.680390
0.676470
0.696080
0.670590
0.629410
0.580390
0.550980
0.464710
0.380390
0.329410
0.294120
0.290200
0.278430
0.284310
0.303920
0.274510
0.268630
0.274510
0.258820
0.268630
0.284310
0.278430
0.274510
0.290200
0.309800
0.323530
0.294120
0.290200
0.303920
0.313730
0.303920
0.290200
0.309800
0.345100
0.354900
0.329410
0.364710
0.384310
0.390200
0.370590
0.380390
0.384310
0.374510
0.349020
0.339220
0.319610
0.323530
0.339220
0.339220
0.354900
0.303920
0.268630
0.264710
0.709800
1.247100
1.262700
0.615690
0.394120
0.254900
0.303920
0.339220
0.345100
0.354900
0.349020
0.358820
0.384310
0.394120
0.390200
0.409800
0.409800
0.415690
0.449020
0.470590
0.484310
0.519610
0.539220
0.570590
0.590200
0.635290
0.676470
0.696080
0.690200
0.700000
0.690200
0.670590
0.641180
0.596080
0.525490
0.460780
0.403920
0.358820
0.309800
0.284310
0.278430
0.268630
0.268630
0.278430
0.268630
0.264710
0.258820
0.278430
0.300000
0.290200
0.278430
0.284310
0.300000
0.313730
0.319610
0.303920
0.313730
0.309800
0.300000
0.290200
0.309800
0.313730
0.329410
0.339220
0.349020
0.345100
0.358820
0.384310
0.374510
0.358820
0.358820
0.354900
0.335290
0.309800
0.329410
0.345100
0.358820
0.329410
0.264710
0.174510
0.303920
0.841180
1.347100
1.002000
0.494120
0.284310
0.254900
0.309800
0.335290
0.313730
0.323530
0.354900
0.380390
0.384310
0.384310
0.380390
0.403920
0.400000
0.425490
0.460780
0.474510
0.505880
0.515690
0.535290
0.550980
0.600000
0.619610
0.645100
0.680390
0.690200
0.696080
0.686270
0.690200
0.615690
0.560780
0.484310
0.435290
0.400000
0.354900
0.309800
0.290200
0.274510
0.268630
0.274510
0.290200
0.284310
0.300000
0.303920
0.274510
0.268630
0.278430
0.274510
0.300000
0.313730
0.303920
0.313730
0.345100
0.339220
0.319610
0.300000
0.313730
0.335290
0.339220
0.335290
0.313730
0.335290
0.358820
0.380390
0.390200
0.370590
0.339220
0.329410
0.345100
0.358820
0.345100
0.329410
0.323530
0.339220
0.300000
0.245100
0.203920
0.525490
1.137300
1.347100
0.766670
0.429410
0.294120
0.284310
0.339220
0.329410
0.345100
0.339220
0.339220
0.358820
0.380390
0.390200
0.425490
0.429410
0.415690
0.435290
0.445100
0.490200
0.515690
0.525490
0.554900
0.590200
0.615690
0.645100
0.664710
0.664710
0.680390
0.686270
0.670590
0.664710
0.605880
0.539220
0.494120
0.419610
0.354900
0.329410
0.303920
0.278430
0.284310
0.300000
0.284310
0.274510
0.278430
0.284310
0.278430
0.313730
0.309800
0.294120
0.290200
0.290200
0.294120
0.309800
0.313730
0.290200
0.284310
0.303920
0.323530
0.319610
0.313730
0.335290
0.354900
0.329410
0.339220
0.354900
0.384310
0.384310
0.384310
0.374510
0.380390
0.345100
0.339220
0.329410
0.309800
0.313730
0.329410
0.339220
0.294120
0.233330
0.200000
0.615690
1.247100
1.411800
0.705880
0.370590
0.254900
0.309800
0.335290
0.349020
0.364710
0.380390
0.339220
0.358820
0.384310
0.384310
0.358820
0.380390
0.415690
0.460780
0.490200
0.500000
0.515690
0.525490
0.550980
0.570590
0.629410
0.660780
0.664710
0.676470
0.670590
0.680390
0.670590
0.686270
0.596080
0.519610
0.454900
0.403920
0.380390
0.323530
0.335290
0.309800
0.290200
0.284310
0.274510
0.264710
0.249020
0.284310
0.323530
0.309800
0.303920
0.309800
0.294120
0.284310
0.309800
0.303920
0.329410
0.309800
0.300000
0.313730
0.303920
0.345100
0.309800
0.303920
0.313730
0.319610
0.335290
0.313730
0.345100
0.364710
0.415690
0.429410
0.374510
0.380390
0.358820
0.370590
0.349020
0.319610
0.313730
0.329410
0.349020
0.309800
0.339220
0.249020
0.213730
0.615690
1.217600
1.362700
0.735290
0.435290
0.313730
0.329410
0.335290
0.345100
0.339220
0.323530
0.354900
0.384310
0.370590
0.384310
0.403920
0.409800
0.429410
0.439220
0.435290
0.474510
0.464710
0.539220
0.550980
0.600000
0.609800
0.625490
0.664710
0.660780
0.676470
0.676470
0.696080
0.664710
0.609800
0.545100
0.474510
0.394120
0.374510
0.335290
0.294120
0.274510
0.290200
0.309800
0.284310
0.245100
0.294120
0.303920
0.268630
0.274510
0.290200
0.323530
0.329410
0.294120
0.300000
0.284310
0.278430
0.309800
0.294120
0.309800
0.294120
0.319610
0.303920
0.319610
0.339220
0.345100
0.335290
0.319610
0.309800
0.339220
0.364710
0.380390
0.358820
0.370590
0.354900
0.358820
0.364710
0.370590
0.345100
0.323530
0.319610
0.313730
0.278430
0.223530
0.188240
0.619610
1.221600
1.352900
0.700000
0.394120
0.278430
0.329410
0.339220
0.339220
0.339220
0.354900
0.370590
0.374510
0.358820
0.358820
0.384310
0.403920
0.400000
0.409800
0.435290
0.460780
0.494120
0.519610
0.545100
0.580390
0.615690
0.619610
0.641180
0.660780
0.680390
0.676470
0.660780
0.641180
0.580390
0.519610
0.449020
0.400000
0.358820
0.313730
0.294120
0.290200
0.278430
0.268630
0.254900
0.268630
0.278430
0.290200
0.274510
0.268630
0.300000
0.294120
0.284310
0.290200
0.290200
0.300000
0.300000
0.303920
0.313730
0.300000
0.294120
0.309800
0.303920
0.313730
0.313730
0.313730
0.329410
0.339220
0.329410
0.354900
0.380390
0.384310
0.390200
0.403920
0.370590
0.349020
0.345100
0.329410
0.339220
0.370590
0.380390
0.323530
0.249020
0.188240
0.294120
0.825490
1.333300
1.041200
0.580390
0.358820
0.290200
0.323530
0.345100
0.354900
0.339220
0.335290
0.370590
0.384310
0.403920
0.409800
0.409800
0.425490
0.445100
0.454900
0.464710
0.500000
0.519610
0.529410
0.550980
0.596080
0.650980
0.660780
0.670590
0.670590
0.686270
0.696080
0.690200
0.635290
0.570590
0.515690
0.454900
0.390200
0.329410
0.290200
0.284310
0.274510
0.284310
0.290200
0.278430
0.268630
0.278430
0.294120
0.290200
0.313730
0.303920
0.284310
0.278430
0.303920
0.313730
0.300000
0.294120
0.319610
0.339220
0.335290
0.319610
0.329410
0.329410
0.339220
0.358820
0.390200
0.400000
0.384310
0.374510
0.370590
0.374510
0.364710
0.358820
0.349020
0.339220
0.329410
0.349020
0.358820
0.309800
0.274510
0.239220
0.519610
1.066700
1.292200
0.760780
0.394120
0.254900
0.249020
0.335290
0.354900
0.358820
0.358820
0.354900
0.380390
0.394120
0.394120
0.400000
0.429410
0.449020
0.464710
0.494120
0.500000
0.519610
0.535290
0.560780
0.615690
0.641180
0.676470
0.686270
0.680390
0.690200
0.709800
0.715690
0.654900
0.605880
0.545100
0.484310
0.419610
0.364710
0.335290
0.309800
0.274510
0.278430
0.290200
0.278430
0.274510
0.268630
0.268630
0.278430
0.294120
0.303920
0.313730
0.313730
0.309800
0.294120
0.303920
0.313730
0.313730
0.335290
0.349020
0.339220
0.323530
0.313730
0.323530
0.329410
0.339220
0.339220
0.354900
0.384310
0.394120
0.390200
0.394120
0.370590
0.380390
0.364710
0.354900
0.329410
0.313730
0.319610
0.329410
0.339220
0.300000
0.223530
0.213730
0.786270
1.347100
1.362700
0.584310
0.309800
0.268630
0.354900
0.349020
0.358820
0.354900
0.354900
0.358820
0.370590
0.394120
0.403920
0.409800
0.415690
0.409800
0.464710
0.494120
0.505880
0.525490
0.519610
0.596080
0.625490
0.650980
0.670590
0.690200
0.700000
0.696080
0.700000
0.690200
0.654900
0.600000
0.525490
0.454900
0.415690
0.364710
0.309800
0.290200
0.284310
0.274510
0.294120
0.290200
0.290200
0.294120
0.309800
0.313730
0.290200
0.290200
0.303920
0.313730
0.303920
0.309800
0.300000
0.323530
0.329410
0.303920
0.294120
0.323530
0.335290
0.319610
0.339220
0.354900
0.349020
0.364710
0.358820
0.390200
0.384310
0.400000
0.370590
0.354900
0.364710
0.349020
0.323530
0.323530
0.329410
0.323530
0.345100
0.354900
0.278430
0.223530
0.484310
1.076500
1.317600
0.800000
0.390200
0.290200
0.323530
0.358820
0.358820
0.349020
0.349020
0.358820
0.380390
0.358820
0.364710
0.374510
0.394120
0.419610
0.449020
0.480390
0.480390
0.500000
0.509800
0.529410
0.574510
0.596080
0.641180
0.686270
0.705880
0.705880
0.700000
0.690200
0.676470
0.615690
0.529410
0.470590
0.409800
0.370590
0.313730
0.290200
0.274510
0.278430
0.284310
0.284310
0.313730
0.300000
0.274510
0.268630
0.290200
0.268630
0.284310
0.278430
0.300000
0.313730
0.329410
0.309800
0.335290
0.303920
0.278430
0.303920
0.313730
0.313730
0.319610
0.329410
0.339220
0.335290
0.319610
0.358820
0.349020
0.345100
0.349020
0.374510
0.390200
0.400000
0.390200
0.358820
0.345100
0.323530
0.349020
0.358820
0.339220
0.323530
0.284310
0.249020
0.213730
0.676470
1.231400
1.337300
0.660780
0.358820
0.264710
0.345100
0.370590
0.354900
0.335290
0.339220
0.323530
0.374510
0.384310
0.409800
0.403920
0.394120
0.419610
0.435290
0.445100
0.460780
0.500000
0.539220
0.529410
0.574510
0.600000
0.650980
0.690200
0.700000
0.690200
0.705880
0.664710
0.625490
0.596080
0.525490
0.470590
0.403920
0.370590
0.313730
0.290200
0.309800
0.303920
0.313730
0.290200
0.294120
0.268630
0.258820
0.278430
0.268630
0.284310
0.294120
0.309800
0.309800
0.290200
0.319610
0.335290
0.329410
0.313730
0.300000
0.294120
0.290200
0.278430
0.329410
0.335290
0.323530
0.319610
0.335290
0.345100
0.354900
0.370590
0.384310
0.384310
0.390200
0.400000
0.370590
0.370590
0.358820
0.345100
0.335290
0.345100
0.349020
0.319610
0.264710
0.209800
0.380390
0.941180
1.347100
0.950980
0.505880
0.313730
0.290200
0.339220
0.345100
0.335290
0.339220
0.339220
0.358820
0.370590
0.384310
0.384310
0.403920
0.425490
0.454900
0.460780
0.470590
0.480390
0.505880
0.535290
0.560780
0.590200
0.615690
0.641180
0.676470
0.690200
0.680390
0.670590
0.645100
0.596080
0.545100
0.490200
0.429410
0.374510
0.335290
0.294120
0.290200
0.278430
0.268630
0.268630
0.290200
0.278430
0.278430
0.268630
0.290200
0.294120
0.303920
0.309800
0.290200
0.278430
0.294120
0.313730
0.319610
0.309800
0.294120
0.294120
0.309800
0.300000
0.329410
0.339220
0.309800
0.300000
0.319610
0.345100
0.390200
0.403920
0.384310
0.380390
0.358820
0.380390
0.358820
0.339220
0.339220
0.345100
0.339220
0.374510
0.313730
0.274510
0.245100
0.239220
0.735290
1.247100
1.252900
0.605880
0.390200
0.290200
0.319610
0.339220
0.329410
0.358820
0.358820
0.339220
0.339220
0.358820
0.403920
0.425490
0.403920
0.415690
0.445100
0.484310
0.500000
0.539220
0.525490
0.519610
0.570590
0.635290
0.670590
0.680390
0.676470
0.690200
0.705880
0.690200
0.650980
0.590200
0.529410
0.449020
0.380390
0.339220
0.309800
0.268630
0.278430
0.290200
0.294120
0.300000
0.284310
0.274510
0.278430
0.268630
0.284310
0.294120
0.300000
0.294120
0.309800
0.290200
0.303920
0.290200
0.290200
0.303920
0.313730
0.313730
0.323530
0.329410
0.323530
0.339220
0.335290
0.374510
0.390200
0.409800
0.394120
0.358820
0.339220
0.339220
0.345100
0.335290
0.329410
0.309800
0.309800
0.313730
0.264710
0.223530
0.415690
0.970590
1.282400
0.835290
0.415690
0.245100
0.223530
0.319610
0.345100
0.349020
0.335290
0.339220
0.354900
0.374510
0.384310
0.400000
0.409800
0.419610
0.435290
0.435290
0.470590
0.480390
0.515690
0.554900
0.574510
0.615690
0.650980
0.670590
0.680390
0.686270
0.680390
0.690200
0.660780
0.619610
0.560780
0.484310
0.415690
0.364710
0.313730
0.294120
0.290200
0.278430
0.245100
0.229410
0.249020
0.268630
0.264710
0.268630
0.274510
0.268630
0.278430
0.274510
0.278430
0.290200
0.294120
0.309800
0.313730
0.290200
0.309800
0.300000
0.300000
0.313730
0.339220
0.329410
0.323530
0.335290
0.345100
0.364710
0.394120
0.380390
0.364710
0.345100
0.335290
0.309800
0.290200
0.313730
0.329410
0.323530
0.284310
0.239220
0.200000
0.580390
1.186300
1.378400
0.709800
0.364710
0.264710
0.303920
0.313730
0.335290
0.335290
0.339220
0.329410
0.370590
0.374510
0.374510
0.364710
0.380390
0.403920
0.435290
0.454900
0.470590
0.500000
0.525490
0.550980
0.574510
0.605880
0.645100
0.664710
0.686270
0.700000
0.709800
0.690200
0.650980
0.590200
0.509800
0.445100
0.415690
0.354900
0.300000
0.284310
0.268630
0.268630
0.264710
0.268630
0.274510
0.278430
0.274510
0.268630
0.278430
0.274510
0.294120
0.290200
0.284310
0.303920
0.290200
0.278430
0.294120
0.300000
0.294120
0.309800
0.313730
0.319610
0.309800
0.335290
0.339220
0.349020
0.374510
0.380390
0.374510
0.370590
0.354900
0.339220
0.349020
0.323530
0.339220
0.335290
0.323530
0.329410
0.335290
0.233330
0.178430
0.470590
1.076500
1.321600
0.800000
0.403920
0.290200
0.323530
0.349020
0.339220
0.329410
0.339220
0.335290
0.364710
0.403920
0.409800
0.380390
0.403920
0.415690
0.439220
0.449020
0.480390
0.494120
0.539220
0.574510
0.596080
0.609800
0.619610
0.660780
0.690200
0.705880
0.715690
0.686270
0.670590
0.615690
0.554900
0.470590
0.394120
0.354900
0.313730
0.294120
0.290200
0.290200
0.290200
0.303920
0.294120
0.300000
0.264710
0.290200
0.268630
0.274510
0.290200
0.294120
0.309800
0.313730
0.290200
0.303920
0.309800
0.329410
0.309800
0.313730
0.313730
0.319610
0.335290
0.323530
0.319610
0.339220
0.349020
0.319610
0.349020
0.380390
0.384310
0.380390
0.370590
0.349020
0.345100
0.358820
0.354900
0.335290
0.313730
0.323530
0.284310
0.213730
0.184310
0.419610
1.066700
1.378400
0.896080
0.454900
0.300000
0.294120
0.345100
0.339220
0.358820
0.370590
0.339220
0.354900
0.374510
0.370590
0.390200
0.429410
0.435290
0.435290
0.449020
0.490200
0.505880
0.535290
0.564710
0.596080
0.605880
0.654900
0.660780
0.650980
0.670590
0.721570
0.735290
0.686270
0.625490
0.554900
0.474510
0.409800
0.345100
0.313730
0.323530
0.335290
0.290200
0.278430
0.284310
0.268630
0.290200
0.278430
0.264710
0.284310
0.300000
0.290200
0.313730
0.313730
0.303920
0.313730
0.309800
0.313730
0.323530
0.303920
0.309800
0.313730
0.319610
0.313730
0.329410
0.335290
0.339220
0.358820
0.354900
0.339220
0.339220
0.370590
0.384310
0.400000
0.415690
0.419610
0.390200
0.358820
0.329410
0.313730
0.319610
0.309800
0.319610
0.329410
0.268630
0.200000
0.425490
1.041200
1.347100
0.886270
0.464710
0.303920
0.294120
0.335290
0.345100
0.349020
0.349020
0.354900
0.370590
0.384310
0.390200
0.403920
0.400000
0.425490
0.439220
0.435290
0.460780
0.494120
0.525490
0.570590
0.580390
0.596080
0.635290
0.664710
0.686270
0.686270
0.690200
0.690200
0.660780
0.619610
0.560780
0.490200
0.439220
0.390200
0.349020
0.319610
0.300000
0.290200
0.290200
0.294120
0.303920
0.278430
0.268630
0.284310
0.313730
0.290200
0.290200
0.303920
0.294120
0.290200
0.300000
0.323530
0.335290
0.319610
0.313730
0.323530
0.290200
0.294120
0.313730
0.319610
0.335290
0.349020
0.345100
0.345100
0.339220
0.358820
0.394120
0.409800
0.394120
0.364710
0.349020
0.370590
0.374510
0.345100
0.335290
0.329410
0.354900
0.358820
0.319610
0.264710
0.349020
0.886270
1.327500
0.992160
0.554900
0.358820
0.290200
0.345100
0.354900
0.339220
0.370590
0.384310
0.349020
0.358820
0.380390
0.403920
0.425490
0.435290
0.439220
0.449020
0.474510
0.500000
0.529410
0.554900
0.580390
0.615690
0.645100
0.660780
0.705880
0.721570
0.715690
0.700000
0.686270
0.635290
0.584310
0.529410
0.464710
0.409800
0.349020
0.309800
0.290200
0.284310
0.284310
0.268630
0.264710
0.264710
0.258820
0.268630
0.290200
0.290200
0.294120
0.300000
0.309800
0.313730
0.303920
0.313730
0.339220
0.323530
0.323530
0.313730
0.309800
0.300000
0.313730
0.313730
0.335290
0.354900
0.384310
0.400000
0.409800
0.400000
0.374510
0.364710
0.349020
0.345100
0.335290
0.329410
0.323530
0.339220
0.329410
0.274510
0.219610
0.400000
0.976470
1.333300
0.866670
0.415690
0.258820
0.245100
0.309800
0.345100
0.354900
0.364710
0.370590
0.364710
0.384310
0.384310
0.403920
0.409800
0.429410
0.449020
0.460780
0.470590
0.484310
0.509800
0.545100
0.580390
0.625490
0.654900
0.680390
0.690200
0.696080
0.715690
0.690200
0.670590
0.635290
0.564710
0.494120
0.425490
0.354900
0.313730
0.284310
0.268630
0.268630
0.278430
0.300000
0.294120
0.290200
0.274510
0.264710
0.258820
0.284310
0.290200
0.268630
0.290200
0.309800
0.313730
0.309800
0.313730
0.319610
0.329410
0.335290
0.323530
0.335290
0.345100
0.339220
0.339220
0.354900
0.358820
0.364710
0.380390
0.394120
0.409800
0.419610
0.358820
0.349020
0.345100
0.364710
0.358820
0.339220
0.323530
0.319610
0.329410
0.268630
0.219610
0.409800
0.976470
1.392200
0.960780
0.480390
0.278430
0.254900
0.313730
0.329410
0.345100
0.349020
0.370590
0.394120
0.384310
0.384310
0.390200
0.384310
0.380390
0.400000
0.429410
0.474510
0.560780
0.590200
0.554900
0.550980
0.590200
0.605880
0.641180
0.680390
0.690200
0.690200
0.690200
0.696080
0.645100
0.584310
0.500000
0.419610
0.384310
0.339220
0.309800
0.290200
0.290200
0.294120
0.268630
0.264710
0.278430
0.268630
0.268630
0.284310
0.290200
0.294120
0.309800
0.313730
0.290200
0.294120
0.313730
0.319610
0.303920
0.309800
0.290200
0.303920
0.300000
0.313730
0.313730
0.345100
0.339220
0.339220
0.339220
0.380390
0.374510
0.380390
0.384310
0.384310
0.364710
0.349020
0.354900
0.358820
0.309800
0.313730
0.339220
0.345100
0.274510
0.174510
0.374510
1.005900
1.388200
0.937250
0.470590
0.284310
0.264710
0.335290
0.345100
0.323530
0.354900
0.358820
0.354900
0.384310
0.380390
0.400000
0.403920
0.419610
0.435290
0.435290
0.460780
0.490200
0.500000
0.529410
0.570590
0.596080
0.641180
0.676470
0.690200
0.680390
0.686270
0.690200
0.696080
0.609800
0.550980
0.505880
0.460780
0.394120
0.335290
0.309800
0.284310
0.278430
0.264710
0.258820
0.278430
0.300000
0.274510
0.274510
0.258820
0.268630
0.284310
0.290200
0.268630
0.268630
0.278430
0.303920
0.303920
0.323530
0.313730
0.309800
0.313730
0.303920
0.300000
0.313730
0.313730
0.309800
0.329410
0.313730
0.329410
0.323530
0.374510
0.374510
0.394120
0.390200
0.384310
0.380390
0.358820
0.309800
0.300000
0.339220
0.358820
0.329410
0.290200
0.233330
0.200000
0.454900
1.092200
1.321600
0.850980
0.445100
0.290200
0.274510
0.294120
0.313730
0.354900
0.358820
0.339220
0.358820
0.374510
0.370590
0.390200
0.429410
0.454900
0.435290
0.449020
0.445100
0.480390
0.505880
0.525490
0.574510
0.615690
0.619610
0.664710
0.660780
0.690200
0.645100
0.664710
0.670590
0.605880
0.539220
0.480390
0.419610
0.380390
0.335290
0.319610
0.303920
0.278430
0.268630
0.258820
0.268630
0.254900
0.290200
0.303920
0.319610
0.309800
0.294120
0.313730
0.294120
0.290200
0.300000
0.313730
0.290200
0.258820
0.254900
0.290200
0.284310
0.323530
0.335290
0.309800
0.313730
0.313730
0.319610
0.319610
0.354900
0.374510
0.384310
0.384310
0.349020
0.339220
0.329410
0.313730
0.300000
0.313730
0.329410
0.319610
0.323530
0.274510
0.223530
0.213730
0.700000
1.288200
1.337300
0.609800
0.339220
0.258820
0.303920
0.313730
0.319610
0.323530
0.313730
0.319610
0.349020
0.374510
0.370590
0.374510
0.384310
0.409800
0.425490
0.445100
0.474510
0.490200
0.519610
0.550980
0.574510
0.596080
0.635290
0.664710
0.686270
0.696080
0.670590
0.650980
0.615690
0.564710
0.509800
0.454900
0.394120
0.349020
0.313730
0.300000
0.284310
0.268630
0.268630
0.274510
0.284310
0.278430
0.290200
0.309800
0.300000
0.278430
0.290200
0.294120
0.309800
0.303920
0.300000
0.319610
0.309800
0.313730
0.313730
0.319610
0.309800
0.309800
0.323530
0.335290
0.313730
0.329410
0.319610
0.323530
0.345100
0.394120
0.400000
0.380390
0.384310
0.354900
0.358820
0.380390
0.345100
0.329410
0.329410
0.313730
0.323530
0.335290
0.274510
0.233330
0.415690
0.996080
1.327500
0.901960
0.494120
0.319610
0.284310
0.323530
0.358820
0.354900
0.345100
0.370590
0.349020
0.345100
0.400000
0.419610
0.409800
0.435290
0.435290
0.454900
0.474510
0.484310
0.505880
0.554900
0.615690
0.619610
0.645100
0.676470
0.715690
0.731370
0.709800
0.690200
0.664710
0.645100
0.600000
0.519610
0.449020
0.390200
0.354900
0.319610
0.309800
0.319610
0.294120
0.300000
0.290200
0.278430
0.284310
0.294120
0.290200
0.303920
0.309800
0.300000
0.309800
0.303920
0.300000
0.329410
0.313730
0.323530
0.313730
0.313730
0.329410
0.390200
0.409800
0.390200
0.394120
0.374510
0.370590
0.390200
0.394120
0.370590
0.358820
0.354900
0.345100
0.339220
0.335290
0.303920
0.329410
0.339220
0.339220
0.284310
0.229410
0.339220
0.841180
1.311800
0.966670
0.464710
0.274510
0.233330
0.303920
0.339220
0.339220
0.329410
0.323530
0.354900
0.354900
0.380390
0.403920
0.409800
0.415690
0.435290
0.460780
0.490200
0.490200
0.505880
0.539220
0.570590
0.584310
0.629410
0.664710
0.676470
0.680390
0.670590
0.680390
0.680390
0.619610
0.554900
0.505880
0.445100
0.374510
0.335290
0.313730
0.284310
0.264710
0.245100
0.258820
0.245100
0.249020
0.249020
0.249020
0.258820
0.278430
0.268630
0.278430
0.284310
0.294120
0.300000
0.290200
0.290200
0.303920
0.309800
0.290200
0.284310
0.278430
0.294120
0.313730
0.319610
0.329410
0.329410
0.349020
0.370590
0.380390
0.394120
0.364710
0.349020
0.309800
0.303920
0.339220
0.345100
0.335290
0.319610
0.303920
0.268630
0.209800
0.184310
0.721570
1.262700
1.317600
0.590200
0.335290
0.249020
0.284310
0.313730
0.339220
0.335290
0.345100
0.358820
0.358820
0.354900
0.345100
0.374510
0.400000
0.435290
0.460780
0.454900
0.509800
0.525490
0.515690
0.554900
0.590200
0.609800
0.635290
0.670590
0.696080
0.676470
0.664710
0.690200
0.654900
0.600000
0.554900
0.470590
0.394120
0.345100
0.309800
0.294120
0.278430
0.249020
0.245100
0.258820
0.284310
0.294120
0.303920
0.309800
0.284310
0.274510
0.290200
0.294120
0.274510
0.294120
0.290200
0.329410
0.339220
0.303920
0.294120
0.313730
0.313730
0.313730
0.335290
0.349020
0.345100
0.358820
0.358820
0.384310
0.394120
0.380390
0.364710
0.339220
0.354900
0.335290
0.323530
0.349020
0.345100
0.370590
0.349020
0.300000
0.254900
0.219610
0.596080
1.182400
1.352900
0.731370
0.394120
0.264710
0.323530
0.358820
0.349020
0.409800
0.380390
0.358820
0.349020
0.370590
0.380390
0.390200
0.400000
0.429410
0.480390
0.470590
0.464710
0.494120
0.505880
0.560780
0.629410
0.650980
0.660780
0.654900
0.664710
0.680390
0.664710
0.680390
0.654900
0.615690
0.560780
0.525490
0.415690
0.370590
0.313730
0.313730
0.319610
0.300000
0.309800
0.268630
0.278430
0.264710
0.268630
0.290200
0.284310
0.290200
0.323530
0.313730
0.319610
0.313730
0.309800
0.323530
0.335290
0.313730
0.329410
0.303920
0.313730
0.339220
0.354900
0.335290
0.323530
0.358820
0.358820
0.370590
0.394120
0.390200
0.415690
0.374510
0.358820
0.364710
0.358820
0.339220
0.354900
0.354900
0.358820
0.370590
0.374510
0.274510
0.213730
0.460780
1.072500
1.343100
0.886270
0.500000
0.323530
0.284310
0.313730
0.329410
0.345100
0.349020
0.354900
0.374510
0.384310
0.384310
0.384310
0.380390
0.435290
0.439220
0.464710
0.480390
0.480390
0.500000
0.519610
0.545100
0.629410
0.645100
0.670590
0.690200
0.670590
0.670590
0.645100
0.629410
0.605880
0.570590
0.515690
0.449020
0.384310
0.345100
0.303920
0.300000
0.290200
0.274510
0.278430
0.268630
0.274510
0.290200
0.284310
0.274510
0.284310
0.290200
0.290200
0.303920
0.309800
0.309800
0.319610
0.309800
0.319610
0.313730
0.313730
0.313730
0.323530
0.335290
0.329410
0.349020
0.345100
0.345100
0.380390
0.390200
0.384310
0.400000
0.374510
0.358820
0.349020
0.345100
0.335290
0.313730
0.309800
0.323530
0.335290
0.274510
0.200000
0.364710
0.937250
1.343100
0.966670
0.515690
0.303920
0.264710
0.329410
0.345100
0.349020
0.339220
0.358820
0.358820
0.354900
0.384310
0.390200
0.400000
0.425490
0.445100
0.480390
0.490200
0.515690
0.535290
0.554900
0.580390
0.605880
0.641180
0.660780
0.664710
0.686270
0.690200
0.705880
0.690200
0.641180
0.584310
0.515690
0.429410
0.364710
0.345100
0.313730
0.309800
0.313730
0.294120
0.264710
0.268630
0.268630
0.264710
0.274510
0.290200
0.303920
0.294120
0.290200
0.294120
0.300000
0.284310
0.309800
0.323530
0.303920
0.294120
0.300000
0.309800
0.323530
0.313730
0.339220
0.349020
0.354900
0.339220
0.364710
0.384310
0.400000
0.384310
0.364710
0.358820
0.339220
0.319610
0.313730
0.335290
0.339220
0.335290
0.300000
0.245100
0.345100
0.841180
1.321600
1.041200
0.554900
0.329410
0.245100
0.300000
0.329410
0.339220
0.335290
0.335290
0.345100
0.370590
0.380390
0.390200
0.394120
0.409800
0.419610
0.445100
0.464710
0.484310
0.519610
0.525490
0.560780
0.600000
0.619610
0.650980
0.670590
0.676470
0.696080
0.709800
0.686270
0.625490
0.564710
0.494120
0.429410
0.374510
0.329410
0.294120
0.284310
0.268630
0.264710
0.268630
0.264710
0.254900
0.249020
0.264710
0.258820
0.284310
0.268630
0.274510
0.264710
0.278430
0.290200
0.309800
0.313730
0.300000
0.290200
0.290200
0.284310
0.309800
0.313730
0.309800
0.313730
0.349020
0.380390
0.384310
0.349020
0.329410
0.323530
0.339220
0.335290
0.335290
0.313730
0.300000
0.294120
0.300000
0.258820
0.200000
0.174510
0.654900
1.221600
1.317600
0.605880
0.323530
0.245100
0.278430
0.300000
0.313730
0.329410
0.323530
0.339220
0.358820
0.380390
0.384310
0.374510
0.400000
0.415690
0.439220
0.449020
0.454900
0.474510
0.519610
0.550980
0.574510
0.600000
0.641180
0.664710
0.680390
0.676470
0.664710
0.650980
0.641180
0.580390
0.519610
0.454900
0.390200
0.329410
0.303920
0.290200
0.264710
0.249020
0.239220
0.268630
0.274510
0.284310
0.274510
0.284310
0.268630
0.278430
0.309800
0.300000
0.278430
0.268630
0.278430
0.284310
0.300000
0.290200
0.319610
0.323530
0.303920
0.303920
0.323530
0.323530
0.335290
0.364710
0.380390
0.380390
0.384310
0.354900
0.349020
0.349020
0.345100
0.339220
0.349020
0.313730
0.319610
0.278430
0.233330
0.154900
0.384310
0.992160
1.352900
0.880390
0.439220
0.284310
0.268630
0.345100
0.364710
0.323530
0.319610
0.335290
0.345100
0.374510
0.384310
0.384310
0.380390
0.394120
0.419610
0.435290
0.445100
0.480390
0.509800
0.545100
0.570590
0.590200
0.609800
0.650980
0.664710
0.650980
0.664710
0.676470
0.619610
0.600000
0.539220
0.470590
0.394120
0.345100
0.303920
0.274510
0.274510
0.264710
0.268630
0.254900
0.264710
0.249020
0.223530
0.219610
0.254900
0.268630
0.258820
0.278430
0.258820
0.254900
0.300000
0.274510
0.264710
0.258820
0.274510
0.268630
0.323530
0.313730
0.303920
0.309800
0.290200
0.300000
0.290200
0.319610
0.349020
0.374510
0.335290
0.329410
0.323530
0.339220
0.300000
0.284310
0.290200
0.274510
0.290200
0.268630
0.209800
0.174510
0.560780
1.131400
1.321600
0.705880
0.364710
0.229410
0.274510
0.290200
0.300000
0.313730
0.313730
0.300000
0.290200
0.364710
0.370590
0.345100
0.358820
0.374510
0.400000
0.425490
0.445100
0.460780
0.505880
0.525490
0.564710
0.584310
0.609800
0.600000
0.670590
0.690200
0.676470
0.625490
0.600000
0.574510
0.529410
0.449020
0.390200
0.358820
0.309800
0.290200
0.284310
0.274510
0.278430
0.303920
0.264710
0.300000
0.278430
0.245100
0.249020
0.303920
0.245100
0.294120
0.313730
0.300000
0.294120
0.309800
0.313730
0.339220
0.354900
0.339220
0.354900
0.335290
0.309800
0.303920
0.335290
0.354900
0.380390
0.384310
0.415690
0.435290
0.419610
0.390200
0.374510
0.403920
0.349020
0.339220
0.390200
0.394120
0.380390
0.354900
0.329410
0.268630
0.249020
0.770590
1.343100
1.366700
0.625490
0.374510
0.319610
0.349020
0.394120
0.429410
0.384310
0.370590
0.384310
0.419610
0.425490
0.429410
0.425490
0.435290
0.435290
0.454900
0.480390
0.454900
0.519610
0.554900
0.570590
0.615690
0.641180
0.696080
0.715690
0.690200
0.690200
0.690200
0.700000
0.686270
0.635290
0.570590
0.494120
0.429410
0.384310
0.345100
0.329410
0.329410
0.335290
0.339220
0.345100
0.313730
0.313730
0.323530
0.335290
0.339220
0.349020
0.335290
0.329410
0.335290
0.358820
0.354900
0.349020
0.354900
0.354900
0.349020
0.339220
0.335290
0.339220
0.349020
0.339220
0.354900
0.358820
0.358820
0.380390
0.394120
0.380390
0.384310
0.394120
0.390200
0.394120
0.380390
0.364710
0.358820
0.339220
0.339220
0.339220
0.300000
0.254900
0.233330
0.731370
1.272500
1.343100
0.686270
0.409800
0.294120
0.339220
0.364710
0.384310
0.370590
0.349020
0.370590
0.384310
0.370590
0.384310
0.425490
0.454900
0.470590
0.460780
0.480390
0.490200
0.509800
0.545100
0.570590
0.596080
0.619610
0.664710
0.676470
0.670590
0.680390
0.696080
0.680390
0.650980
0.596080
0.515690
0.449020
0.409800
0.380390
0.345100
0.313730
0.284310
0.274510
0.268630
0.290200
0.300000
0.290200
0.313730
0.300000
0.290200
0.300000
0.313730
0.303920
0.309800
0.313730
0.329410
0.323530
0.313730
0.303920
0.313730
0.309800
0.339220
0.345100
0.339220
0.358820
0.358820
0.358820
0.380390
0.394120
0.394120
0.394120
0.384310
0.384310
0.364710
0.339220
0.335290
0.345100
0.358820
0.349020
0.319610
0.264710
0.239220
0.670590
1.196100
1.311800
0.650980
0.419610
0.284310
0.268630
0.335290
0.354900
0.370590
0.374510
0.374510
0.380390
0.370590
0.394120
0.415690
0.409800
0.435290
0.464710
0.480390
0.500000
0.529410
0.545100
0.574510
0.600000
0.629410
0.641180
0.664710
0.680390
0.690200
0.680390
0.670590
0.629410
0.596080
0.560780
0.490200
0.419610
0.354900
0.319610
0.294120
0.290200
0.290200
0.300000
0.278430
0.268630
0.268630
0.278430
0.290200
0.290200
0.294120
0.303920
0.290200
0.303920
0.313730
0.313730
0.313730
0.313730
0.309800
0.339220
0.349020
0.313730
0.319610
0.313730
0.339220
0.349020
0.349020
0.358820
0.403920
0.394120
0.370590
0.349020
0.339220
0.335290
0.339220
0.323530
0.329410
0.323530
0.329410
0.335290
0.290200
0.229410
0.203920
0.686270
1.272500
1.388200
0.625490
0.319610
0.245100
0.294120
0.329410
0.339220
0.335290
0.345100
0.339220
0.354900
0.384310
0.394120
0.403920
0.419610
0.429410
0.435290
0.464710
0.494120
0.515690
0.535290
0.560780
0.584310
0.619610
0.619610
0.641180
0.664710
0.686270
0.690200
0.664710
0.641180
0.590200
0.535290
0.484310
0.425490
0.349020
0.294120
0.268630
0.264710
0.258820
0.264710
0.278430
0.290200
0.309800
0.313730
0.294120
0.268630
0.274510
0.290200
0.290200
0.290200
0.300000
0.309800
0.313730
0.303920
0.300000
0.284310
0.278430
0.300000
0.319610
0.323530
0.329410
0.313730
0.309800
0.354900
0.345100
0.370590
0.364710
0.384310
0.370590
0.358820
0.349020
0.339220
0.323530
0.313730
0.335290
0.345100
0.345100
0.303920
0.245100
0.203920
0.605880
1.211800
1.378400
0.709800
0.370590
0.254900
0.303920
0.335290
0.339220
0.319610
0.335290
0.354900
0.380390
0.370590
0.394120
0.403920
0.409800
0.403920
0.425490
0.464710
0.460780
0.480390
0.509800
0.545100
0.584310
0.605880
0.641180
0.676470
0.670590
0.680390
0.676470
0.690200
0.641180
0.584310
0.535290
0.480390
0.419610
0.374510
0.319610
0.294120
0.274510
0.268630
0.264710
0.284310
0.268630
0.274510
0.278430
0.284310
0.254900
0.249020
0.284310
0.278430
0.300000
0.309800
0.300000
0.303920
0.294120
0.290200
0.309800
0.313730
0.313730
0.319610
0.313730
0.309800
0.300000
0.313730
0.349020
0.339220
0.370590
0.380390
0.364710
0.370590
0.358820
0.349020
0.339220
0.335290
0.319610
0.313730
0.319610
0.339220
0.339220
0.294120
0.209800
0.188240
0.676470
1.266700
1.347100
0.650980
0.339220
0.264710
0.335290
0.349020
0.335290
0.339220
0.339220
0.335290
0.370590
0.400000
0.384310
0.384310
0.384310
0.415690
0.439220
0.464710
0.480390
0.490200
0.519610
0.535290
0.564710
0.600000
0.615690
0.645100
0.670590
0.696080
0.676470
0.660780
0.664710
0.584310
0.515690
0.464710
0.384310
0.329410
0.319610
0.294120
0.264710
0.274510
0.290200
0.268630
0.268630
0.268630
0.268630
0.258820
0.264710
0.258820
0.290200
0.290200
0.294120
0.303920
0.300000
0.329410
0.313730
0.284310
0.278430
0.309800
0.313730
0.294120
0.303920
0.313730
0.303920
0.339220
0.345100
0.313730
0.364710
0.370590
0.339220
0.370590
0.390200
0.409800
0.390200
0.354900
0.358820
0.339220
0.339220
0.335290
0.323530
0.319610
0.329410
0.294120
0.223530
0.200000
0.731370
1.288200
1.307800
0.590200
0.335290
0.284310
0.329410
0.335290
0.339220
0.339220
0.349020
0.349020
0.339220
0.354900
0.384310
0.403920
0.415690
0.419610
0.409800
0.449020
0.470590
0.500000
0.505880
0.529410
0.584310
0.615690
0.629410
0.650980
0.660780
0.676470
0.670590
0.690200
0.670590
0.605880
0.525490
0.445100
0.390200
0.349020
0.323530
0.300000
0.284310
0.254900
0.245100
0.278430
0.274510
0.300000
0.290200
0.284310
0.294120
0.290200
0.290200
0.290200
0.294120
0.309800
0.300000
0.290200
0.294120
0.313730
0.309800
0.313730
0.313730
0.300000
0.323530
0.313730
0.319610
0.329410
0.319610
0.354900
0.364710
0.358820
0.384310
0.400000
0.394120
0.374510
0.349020
0.339220
0.349020
0.358820
0.319610
0.323530
0.319610
0.323530
0.309800
0.264710
0.229410
0.570590
1.176500
1.352900
0.731370
0.384310
0.264710
0.303920
0.335290
0.339220
0.335290
0.339220
0.364710
0.384310
0.374510
0.374510
0.390200
0.400000
0.409800
0.445100
0.454900
0.464710
0.480390
0.515690
0.550980
0.580390
0.615690
0.641180
0.654900
0.660780
0.686270
0.690200
0.664710
0.635290
0.596080
0.535290
0.490200
0.439220
0.384310
0.339220
0.313730
0.294120
0.278430
0.284310
0.290200
0.274510
0.264710
0.258820
0.303920
0.309800
0.294120
0.268630
0.274510
0.290200
0.294120
0.303920
0.309800
0.303920
0.294120
0.294120
0.294120
0.313730
0.323530
0.335290
0.329410
0.309800
0.319610
0.313730
0.354900
0.370590
0.349020
0.364710
0.370590
0.339220
0.335290
0.349020
0.323530
0.329410
0.313730
0.329410
0.349020
0.300000
0.233330
0.209800
0.500000
1.082400
1.302000
0.725490
0.409800
0.264710
0.254900
0.329410
0.339220
0.339220
0.335290
0.349020
0.384310
0.364710
0.364710
0.370590
0.384310
0.400000
0.409800
0.425490
0.449020
0.490200
0.505880
0.529410
0.574510
0.615690
0.641180
0.664710
0.680390
0.690200
0.676470
0.680390
0.654900
0.596080
0.539220
0.474510
0.429410
0.380390
0.339220
0.319610
0.284310
0.290200
0.290200
0.303920
0.290200
0.309800
0.290200
0.284310
0.290200
0.290200
0.309800
0.313730
0.300000
0.313730
0.319610
0.329410
0.335290
0.335290
0.339220
0.309800
0.309800
0.329410
0.339220
0.358820
0.384310
0.400000
0.384310
0.370590
0.370590
0.374510
0.364710
0.358820
0.329410
0.313730
0.313730
0.319610
0.339220
0.309800
0.278430
0.213730
0.439220
1.037300
1.362700
0.860780
0.439220
0.284310
0.268630
0.335290
0.358820
0.349020
0.339220
0.358820
0.358820
0.364710
0.409800
0.435290
0.439220
0.435290
0.454900
0.454900
0.474510
0.505880
0.550980
0.545100
0.574510
0.615690
0.645100
0.664710
0.686270
0.690200
0.690200
0.700000
0.676470
0.629410
0.554900
0.494120
0.435290
0.364710
0.339220
0.335290
0.319610
0.303920
0.290200
0.268630
0.278430
0.274510
0.278430
0.290200
0.278430
0.274510
0.300000
0.303920
0.313730
0.323530
0.329410
0.339220
0.323530
0.339220
0.335290
0.323530
0.309800
0.313730
0.319610
0.339220
0.358820
0.374510
0.358820
0.374510
0.384310
0.400000
0.380390
0.370590
0.349020
0.335290
0.329410
0.345100
0.313730
0.339220
0.349020
0.300000
0.239220
0.219610
0.664710
1.243100
1.352900
0.650980
0.364710
0.284310
0.313730
0.313730
0.303920
0.323530
0.329410
0.335290
0.384310
0.409800
0.415690
0.403920
0.425490
0.409800
0.429410
0.439220
0.464710
0.509800
0.535290
0.550980
0.580390
0.590200
0.629410
0.686270
0.690200
0.680390
0.670590
0.670590
0.641180
0.605880
0.554900
0.480390
0.394120
0.354900
0.300000
0.284310
0.278430
0.300000
0.274510
0.258820
0.284310
0.274510
0.274510
0.284310
0.278430
0.290200
0.278430
0.300000
0.303920
0.294120
0.309800
0.303920
0.329410
0.319610
0.329410
0.313730
0.339220
0.313730
0.323530
0.339220
0.335290
0.380390
0.374510
0.403920
0.380390
0.358820
0.370590
0.354900
0.358820
0.358820
0.329410
0.319610
0.335290
0.339220
0.268630
0.194120
0.429410
1.031400
1.347100
0.870590
0.445100
0.300000
0.284310
0.339220
0.358820
0.370590
0.345100
0.354900
0.345100
0.374510
0.384310
0.380390
0.390200
0.409800
0.429410
0.464710
0.474510
0.490200
0.519610
0.535290
0.529410
0.641180
0.664710
0.686270
0.686270
0.676470
0.690200
0.670590
0.650980
0.605880
0.525490
0.494120
0.425490
0.380390
0.345100
0.329410
0.303920
0.294120
0.268630
0.278430
0.294120
0.300000
0.290200
0.284310
0.274510
0.278430
0.290200
0.303920
0.294120
0.313730
0.303920
0.323530
0.313730
0.313730
0.319610
0.309800
0.323530
0.335290
0.323530
0.319610
0.345100
0.335290
0.335290
0.364710
0.380390
0.384310
0.394120
0.364710
0.349020
0.323530
0.319610
0.339220
0.358820
0.354900
0.358820
0.358820
0.294120
0.209800
0.278430
0.800000
1.317600
1.056900
0.550980
0.319610
0.278430
0.349020
0.358820
0.345100
0.323530
0.349020
0.380390
0.380390
0.384310
0.409800
0.409800
0.415690
0.429410
0.439220
0.454900
0.480390
0.505880
0.529410
0.584310
0.629410
0.645100
0.625490
0.654900
0.664710
0.696080
0.709800
0.686270
0.629410
0.564710
0.500000
0.454900
0.394120
0.354900
0.303920
0.274510
0.303920
0.309800
0.300000
0.268630
0.284310
0.300000
0.290200
0.290200
0.303920
0.300000
0.290200
0.300000
0.290200
0.313730
0.300000
0.313730
0.309800
0.329410
0.323530
0.313730
0.319610
0.313730
0.323530
0.319610
0.345100
0.370590
0.400000
0.384310
0.400000
0.409800
0.384310
0.358820
0.335290
0.319610
0.313730
0.313730
0.313730
0.335290
0.335290
0.284310
0.213730
0.203920
0.750980
1.298000
1.307800
0.584310
0.339220
0.284310
0.313730
0.339220
0.345100
0.354900
0.358820
0.364710
0.370590
0.364710
0.370590
0.390200
0.403920
0.429410
0.435290
0.439220
0.464710
0.500000
0.515690
0.545100
0.574510
0.605880
0.635290
0.660780
0.670590
0.664710
0.676470
0.664710
0.641180
0.574510
0.509800
0.439220
0.380390
0.339220
0.313730
0.284310
0.268630
0.258820
0.268630
0.274510
0.290200
0.284310
0.284310
0.290200
0.290200
0.284310
0.294120
0.290200
0.313730
0.300000
0.309800
0.319610
0.309800
0.290200
0.300000
0.290200
0.309800
0.329410
0.335290
0.339220
0.329410
0.335290
0.329410
0.339220
0.354900
0.384310
0.394120
0.374510
0.370590
0.384310
0.380390
0.364710
0.335290
0.329410
0.335290
0.323530
0.335290
0.339220
0.303920
0.254900
0.425490
1.015700
1.292200
0.856860
0.474510
0.300000
0.278430
0.339220
0.345100
0.339220
0.370590
0.354900
0.349020
0.380390
0.394120
0.374510
0.394120
0.390200
0.415690
0.449020
0.480390
0.505880
0.539220
0.545100
0.560780
0.590200
0.625490
0.654900
0.676470
0.670590
0.690200
0.686270
0.680390
0.641180
0.554900
0.494120
0.439220
0.374510
0.335290
0.323530
0.313730
0.290200
0.268630
0.268630
0.274510
0.264710
0.258820
0.274510
0.284310
0.294120
0.313730
0.303920
0.294120
0.294120
0.303920
0.313730
0.309800
0.300000
0.313730
0.319610
0.309800
0.303920
0.309800
0.303920
0.335290
0.339220
0.358820
0.390200
0.384310
0.384310
0.390200
0.358820
0.335290
0.319610
0.309800
0.313730
0.319610
0.345100
0.354900
0.323530
0.254900
0.219610
0.654900
1.196100
1.317600
0.600000
0.323530
0.249020
0.309800
0.339220
0.339220
0.339220
0.339220
0.358820
0.370590
0.400000
0.394120
0.403920
0.419610
0.445100
0.470590
0.519610
0.509800
0.505880
0.525490
0.550980
0.584310
0.615690
0.650980
0.680390
0.686270
0.690200
0.690200
0.696080
0.664710
0.600000
0.525490
0.464710
0.400000
0.339220
0.323530
0.313730
0.284310
0.274510
0.290200
0.254900
0.264710
0.268630
0.274510
0.274510
0.268630
0.284310
0.290200
0.290200
0.294120
0.313730
0.319610
0.309800
0.313730
0.313730
0.309800
0.303920
0.309800
0.319610
0.323530
0.339220
0.345100
0.339220
0.349020
0.384310
0.384310
0.384310
0.380390
0.354900
0.349020
0.354900
0.323530
0.319610
0.339220
0.349020
0.358820
0.329410
0.264710
0.219610
0.460780
1.037300
1.317600
0.825490
0.415690
0.264710
0.290200
0.313730
0.349020
0.354900
0.345100
0.319610
0.345100
0.390200
0.403920
0.384310
0.403920
0.425490
0.439220
0.454900
0.460780
0.474510
0.500000
0.535290
0.570590
0.600000
0.654900
0.686270
0.686270
0.700000
0.680390
0.686270
0.641180
0.580390
0.535290
0.480390
0.409800
0.384310
0.345100
0.313730
0.278430
0.264710
0.284310
0.274510
0.245100
0.268630
0.268630
0.278430
0.290200
0.278430
0.294120
0.309800
0.290200
0.290200
0.290200
0.300000
0.300000
0.313730
0.309800
0.294120
0.313730
0.313730
0.313730
0.329410
0.323530
0.339220
0.354900
0.345100
0.370590
0.374510
0.384310
0.390200
0.374510
0.345100
0.339220
0.349020
0.339220
0.345100
0.339220
0.335290
0.313730
0.258820
0.194120
0.435290
1.066700
1.366700
0.856860
0.403920
0.254900
0.284310
0.329410
0.354900
0.370590
0.339220
0.358820
0.374510
0.384310
0.390200
0.384310
0.419610
0.429410
0.419610
0.429410
0.484310
0.519610
0.529410
0.525490
0.580390
0.615690
0.645100
0.654900
0.676470
0.676470
0.686270
0.690200
0.664710
0.635290
0.564710
0.490200
0.435290
0.400000
0.339220
0.294120
0.268630
0.278430
0.268630
0.249020
0.268630
0.284310
0.290200
0.278430
0.268630
0.290200
0.313730
0.300000
0.290200
0.274510
0.284310
0.303920
0.309800
0.313730
0.313730
0.335290
0.339220
0.323530
0.313730
0.284310
0.278430
0.323530
0.339220
0.358820
0.403920
0.409800
0.384310
0.358820
0.339220
0.339220
0.358820
0.345100
0.319610
0.323530
0.335290
0.313730
0.319610
0.258820
0.174510
0.400000
1.011800
1.343100
0.870590
0.439220
0.278430
0.274510
0.335290
0.323530
0.339220
0.329410
0.329410
0.345100
0.349020
0.380390
0.400000
0.394120
0.419610
0.429410
0.460780
0.480390
0.474510
0.519610
0.539220
0.550980
0.600000
0.629410
0.654900
0.690200
0.696080
0.709800
0.690200
0.650980
0.615690
0.560780
0.480390
0.435290
0.390200
0.335290
0.294120
0.290200
0.290200
0.300000
0.268630
0.274510
0.278430
0.264710
0.284310
0.303920
0.313730
0.323530
0.303920
0.300000
0.309800
0.309800
0.303920
0.309800
0.313730
0.309800
0.339220
0.339220
0.349020
0.303920
0.300000
0.294120
0.323530
0.335290
0.364710
0.390200
0.390200
0.394120
0.374510
0.358820
0.349020
0.335290
0.335290
0.339220
0.354900
0.345100
0.349020
0.300000
0.233330
0.219610
0.721570
1.276500
1.311800
0.619610
0.364710
0.290200
0.339220
0.364710
0.370590
0.354900
0.345100
0.358820
0.380390
0.384310
0.394120
0.403920
0.409800
0.439220
0.445100
0.454900
0.480390
0.500000
0.535290
0.570590
0.600000
0.645100
0.660780
0.670590
0.690200
0.686270
0.670590
0.660780
0.641180
0.590200
0.529410
0.484310
0.409800
0.345100
0.319610
0.309800
0.284310
0.278430
0.290200
0.268630
0.268630
0.300000
0.303920
0.290200
0.290200
0.294120
0.290200
0.303920
0.300000
0.284310
0.268630
0.290200
0.319610
0.335290
0.329410
0.323530
0.329410
0.313730
0.319610
0.354900
0.358820
0.345100
0.370590
0.384310
0.394120
0.400000
0.358820
0.370590
0.345100
0.335290
0.329410
0.339220
0.345100
0.349020
0.323530
0.294120
0.254900
0.374510
0.866670
1.247100
0.911760
0.515690
0.358820
0.284310
0.309800
0.329410
0.339220
0.345100
0.358820
0.370590
0.380390
0.370590
0.403920
0.394120
0.425490
0.435290
0.460780
0.480390
0.509800
0.539220
0.570590
0.574510
0.570590
0.615690
0.645100
0.680390
0.690200
0.696080
0.709800
0.676470
0.615690
0.554900
0.500000
0.435290
0.380390
0.329410
0.300000
0.290200
0.290200
0.303920
0.284310
0.274510
0.284310
0.290200
0.290200
0.300000
0.284310
0.278430
0.278430
0.284310
0.290200
0.300000
0.309800
0.294120
0.300000
0.309800
0.313730
0.309800
0.339220
0.349020
0.364710
0.384310
0.364710
0.358820
0.349020
0.339220
0.339220
0.319610
0.313730
0.329410
0.323530
0.309800
0.300000
0.264710
0.203920
0.294120
0.786270
1.302000
1.027500
0.494120
0.274510
0.239220
0.323530
0.364710
0.335290
0.319610
0.313730
0.335290
0.354900
0.364710
0.370590
0.390200
0.425490
0.445100
0.439220
0.464710
0.494120
0.525490
0.554900
0.574510
0.596080
0.615690
0.629410
0.660780
0.654900
0.686270
0.690200
0.660780
0.619610
0.564710
0.500000
0.435290
0.384310
0.335290
0.303920
0.290200
0.278430
0.264710
0.268630
0.284310
0.268630
0.258820
0.249020
0.264710
0.274510
0.290200
0.284310
0.268630
0.294120
0.309800
0.303920
0.290200
0.309800
0.319610
0.335290
0.339220
0.335290
0.319610
0.349020
0.364710
0.380390
0.374510
0.380390
0.339220
0.345100
0.339220
0.323530
0.313730
0.319610
0.339220
0.345100
0.274510
0.203920
0.188240
0.741180
1.307800
1.333300
0.574510
0.323530
0.268630
0.319610
0.339220
0.339220
0.339220
0.349020
0.358820
0.370590
0.403920
0.419610
0.400000
0.403920
0.429410
0.454900
0.480390
0.480390
0.500000
0.529410
0.580390
0.619610
0.629410
0.654900
0.670590
0.690200
0.690200
0.686270
0.670590
0.625490
0.600000
0.515690
0.460780
0.384310
0.358820
0.319610
0.284310
0.258820
0.254900
0.254900
0.258820
0.274510
0.284310
0.290200
0.290200
0.268630
0.290200
0.300000
0.284310
0.274510
0.268630
0.284310
0.294120
0.313730
0.319610
0.294120
0.294120
0.313730
0.323530
0.319610
0.335290
0.370590
0.384310
0.403920
0.380390
0.354900
0.339220
0.313730
0.313730
0.323530
0.329410
0.313730
0.313730
0.323530
0.233330
0.158820
0.419610
1.076500
1.356900
0.845100
0.415690
0.278430
0.264710
0.313730
0.323530
0.345100
0.358820
0.358820
0.364710
0.364710
0.370590
0.380390
0.394120
0.425490
0.445100
0.454900
0.474510
0.480390
0.505880
0.550980
0.590200
0.600000
0.635290
0.670590
0.709800
0.715690
0.700000
0.676470
0.645100
0.600000
0.535290
0.470590
0.415690
0.354900
0.313730
0.300000
0.290200
0.278430
0.274510
0.284310
0.300000
0.284310
0.278430
0.290200
0.294120
0.309800
0.313730
0.303920
0.294120
0.290200
0.294120
0.303920
0.313730
0.309800
0.300000
0.309800
0.339220
0.370590
0.358820
0.364710
0.370590
0.358820
0.349020
0.358820
0.354900
0.339220
0.313730
0.309800
0.313730
0.313730
0.335290
0.335290
0.274510
0.184310
0.274510
0.796080
1.347100
1.082400
0.554900
0.303920
0.274510
0.329410
0.323530
0.339220
0.329410
0.349020
0.354900
0.364710
0.380390
0.384310
0.380390
0.403920
0.435290
0.449020
0.474510
0.484310
0.505880
0.529410
0.570590
0.600000
0.615690
0.635290
0.645100
0.676470
0.686270
0.690200
0.650980
0.605880
0.545100
0.484310
0.439220
0.370590
0.329410
0.294120
0.290200
0.278430
0.264710
0.254900
0.245100
0.268630
0.268630
0.268630
0.290200
0.300000
0.300000
0.290200
0.284310
0.294120
0.309800
0.303920
0.294120
0.309800
0.313730
0.313730
0.323530
0.349020
0.358820
0.380390
0.380390
0.358820
0.354900
0.349020
0.354900
0.339220
0.329410
0.323530
0.319610
0.313730
0.319610
0.323530
0.223530
0.178430
0.525490
1.137300
1.347100
0.709800
0.380390
0.278430
0.309800
0.323530
0.319610
0.319610
0.335290
0.349020
0.354900
0.380390
0.400000
0.403920
0.394120
0.415690
0.435290
0.484310
0.500000
0.490200
0.515690
0.535290
0.596080
0.641180
0.650980
0.664710
0.654900
0.664710
0.664710
0.660780
0.625490
0.584310
0.525490
0.460780
0.403920
0.349020
0.313730
0.300000
0.300000
0.284310
0.290200
0.274510
0.258820
0.264710
0.290200
0.268630
0.268630
0.264710
0.290200
0.294120
0.300000
0.313730
0.319610
0.313730
0.319610
0.313730
0.313730
0.313730
0.358820
0.364710
0.384310
0.370590
0.354900
0.345100
0.354900
0.329410
0.313730
0.313730
0.313730
0.323530
0.339220
0.290200
0.194120
0.319610
0.896080
1.343100
0.947060
0.460780
0.278430
0.264710
0.319610
0.339220
0.335290
0.329410
0.358820
0.374510
0.384310
0.390200
0.374510
0.384310
0.415690
0.435290
0.449020
0.474510
0.500000
0.519610
0.545100
0.574510
0.619610
0.645100
0.660780
0.670590
0.680390
0.690200
0.664710
0.641180
0.609800
0.545100
0.474510
0.403920
0.354900
0.309800
0.290200
0.290200
0.290200
0.284310
0.268630
0.278430
0.290200
0.284310
0.284310
0.274510
0.268630
0.294120
0.290200
0.309800
0.313730
0.290200
0.313730
0.313730
0.303920
0.309800
0.313730
0.354900
0.354900
0.358820
0.349020
0.370590
0.384310
0.390200
0.394120
0.364710
0.358820
0.364710
0.354900
0.335290
0.309800
0.313730
0.335290
0.278430
0.223530
0.209800
0.786270
1.317600
1.076500
0.564710
0.345100
0.309800
0.345100
0.335290
0.323530
0.339220
0.349020
0.354900
0.364710
0.370590
0.390200
0.400000
0.419610
0.449020
0.460780
0.480390
0.505880
0.529410
0.529410
0.570590
0.596080
0.635290
0.664710
0.676470
0.690200
0.690200
0.664710
0.650980
0.641180
0.584310
0.519610
0.470590
0.370590
0.313730
0.300000
0.284310
0.290200
0.294120
0.290200
0.284310
0.274510
0.274510
0.258820
0.284310
0.300000
0.313730
0.303920
0.294120
0.329410
0.309800
0.303920
0.290200
0.309800
0.345100
0.354900
0.358820
0.349020
0.354900
0.364710
0.384310
0.384310
0.374510
0.364710
0.354900
0.358820
0.335290
0.345100
0.358820
0.339220
0.319610
0.258820
0.188240
0.258820
0.790200
1.311800
1.037300
0.539220
0.335290
0.309800
0.345100
0.349020
0.323530
0.339220
0.349020
0.358820
0.380390
0.384310
0.390200
0.384310
0.429410
0.454900
0.460780
0.470590
0.464710
0.494120
0.525490
0.539220
0.590200
0.641180
0.660780
0.676470
0.680390
0.664710
0.680390
0.660780
0.615690
0.554900
0.484310
0.425490
0.370590
0.329410
0.309800
0.290200
0.300000
0.303920
0.290200
0.274510
0.278430
0.284310
0.284310
0.303920
0.294120
0.303920
0.313730
0.300000
0.309800
0.284310
0.294120
0.303920
0.294120
0.335290
0.339220
0.329410
0.339220
0.349020
0.380390
0.400000
0.394120
0.403920
0.370590
0.354900
0.335290
0.323530
0.339220
0.309800
0.313730
0.319610
0.313730
0.300000
0.213730
0.194120
0.766670
1.321600
1.102000
0.596080
0.319610
0.268630
0.313730
0.339220
0.364710
0.370590
0.354900
0.349020
0.358820
0.374510
0.384310
0.380390
0.390200
0.409800
0.445100
0.474510
0.490200
0.505880
0.519610
0.560780
0.590200
0.600000
0.635290
0.664710
0.676470
0.690200
0.680390
0.660780
0.625490
0.564710
0.505880
0.435290
0.374510
0.339220
0.309800
0.284310
0.268630
0.274510
0.290200
0.278430
0.278430
0.274510
0.278430
0.309800
0.313730
0.313730
0.309800
0.323530
0.303920
0.290200
0.284310
0.300000
0.319610
0.313730
0.319610
0.313730
0.345100
0.339220
0.339220
0.358820
0.374510
0.380390
0.370590
0.358820
0.358820
0.339220
0.329410
0.319610
0.323530
0.313730
0.323530
0.290200
0.233330
0.188240
0.505880
1.096100
1.321600
0.780390
0.415690
0.284310
0.313730
0.349020
0.358820
0.339220
0.329410
0.335290
0.345100
0.370590
0.384310
0.400000
0.409800
0.419610
0.435290
0.460780
0.480390
0.494120
0.505880
0.535290
0.584310
0.600000
0.619610
0.641180
0.641180
0.664710
0.670590
0.660780
0.629410
0.584310
0.529410
0.454900
0.415690
0.370590
0.339220
0.313730
0.313730
0.309800
0.278430
0.249020
0.254900
0.264710
0.278430
0.284310
0.264710
0.268630
0.290200
0.300000
0.303920
0.313730
0.303920
0.303920
0.313730
0.319610
0.335290
0.339220
0.313730
0.313730
0.313730
0.339220
0.370590
0.390200
0.400000
0.394120
0.370590
0.345100
0.329410
0.319610
0.323530
0.313730
0.323530
0.335290
0.300000
0.249020
0.219610
0.490200
1.082400
1.307800
0.800000
0.454900
0.294120
0.329410
0.339220
0.339220
0.335290
0.364710
0.380390
0.374510
0.384310
0.403920
0.400000
0.425490
0.439220
0.449020
0.464710
0.500000
0.505880
0.525490
0.550980
0.574510
0.600000
0.645100
0.670590
0.664710
0.660780
0.690200
0.660780
0.625490
0.590200
0.535290
0.470590
0.435290
0.400000
0.345100
0.303920
0.290200
0.274510
0.268630
0.264710
0.264710
0.274510
0.284310
0.290200
0.290200
0.290200
0.309800
0.329410
0.309800
0.290200
0.309800
0.329410
0.335290
0.329410
0.323530
0.335290
0.339220
0.358820
0.358820
0.370590
0.384310
0.394120
0.370590
0.358820
0.349020
0.354900
0.339220
0.335290
0.339220
0.335290
0.339220
0.294120
0.245100
0.209800
0.500000
1.082400
1.292200
0.715690
0.400000
0.268630
0.264710
0.309800
0.323530
0.323530
0.329410
0.335290
0.339220
0.354900
0.370590
0.390200
0.409800
0.435290
0.454900
0.470590
0.480390
0.519610
0.539220
0.564710
0.600000
0.619610
0.664710
0.690200
0.670590
0.676470
0.676470
0.660780
0.629410
0.580390
0.539220
0.470590
0.409800
0.380390
0.345100
0.309800
0.290200
0.290200
0.290200
0.290200
0.278430
0.290200
0.278430
0.258820
0.268630
0.274510
0.294120
0.300000
0.309800
0.309800
0.309800
0.303920
0.319610
0.313730
0.339220
0.323530
0.323530
0.335290
0.339220
0.370590
0.380390
0.390200
0.400000
0.384310
0.349020
0.345100
0.345100
0.339220
0.339220
0.335290
0.313730
0.329410
0.294120
0.233330
0.203920
0.641180
1.221600
1.352900
0.625490
0.335290
0.264710
0.313730
0.339220
0.339220
0.339220
0.349020
0.349020
0.370590
0.384310
0.394120
0.403920
0.400000
0.419610
0.439220
0.454900
0.470590
0.480390
0.519610
0.554900
0.590200
0.615690
0.641180
0.660780
0.670590
0.686270
0.676470
0.664710
0.641180
0.574510
0.525490
0.460780
0.394120
0.339220
0.290200
0.274510
0.278430
0.290200
0.278430
0.274510
0.278430
0.290200
0.290200
0.278430
0.274510
0.249020
0.245100
0.290200
0.309800
0.309800
0.294120
0.278430
0.290200
0.300000
0.313730
0.303920
0.323530
0.319610
0.329410
0.345100
0.364710
0.358820
0.380390
0.354900
0.349020
0.345100
0.345100
0.323530
0.309800
0.313730
0.329410
0.319610
0.268630
0.209800
0.184310
0.686270
1.252900
1.321600
0.605880
0.349020
0.284310
0.319610
0.335290
0.323530
0.358820
0.358820
0.364710
0.358820
0.380390
0.354900
0.370590
0.380390
0.415690
0.449020
0.464710
0.500000
0.505880
0.509800
0.539220
0.570590
0.584310
0.625490
0.680390
0.705880
0.690200
0.686270
0.670590
0.619610
0.580390
0.515690
0.460780
0.400000
0.349020
0.294120
0.278430
0.284310
0.268630
0.290200
0.284310
0.290200
0.294120
0.290200
0.290200
0.294120
0.274510
0.268630
0.284310
0.303920
0.290200
0.294120
0.309800
0.313730
0.335290
0.339220
0.335290
0.319610
0.313730
0.345100
0.339220
0.349020
0.384310
0.400000
0.384310
0.354900
0.345100
0.339220
0.329410
0.319610
0.329410
0.349020
0.335290
0.319610
0.258820
0.194120
0.349020
0.905880
1.337300
0.996080
0.509800
0.300000
0.264710
0.313730
0.339220
0.335290
0.349020
0.323530
0.319610
0.374510
0.394120
0.384310
0.409800
0.435290
0.445100
0.435290
0.460780
0.480390
0.509800
0.539220
0.560780
0.580390
0.596080
0.629410
0.664710
0.670590
0.676470
0.670590
0.654900
0.615690
0.539220
0.484310
0.445100
0.384310
0.319610
0.303920
0.294120
0.309800
0.294120
0.264710
0.258820
0.268630
0.303920
0.290200
0.274510
0.290200
0.290200
0.294120
0.303920
0.313730
0.278430
0.294120
0.290200
0.303920
0.319610
0.319610
0.323530
0.319610
0.313730
0.323530
0.339220
0.339220
0.358820
0.380390
0.394120
0.400000
0.358820
0.364710
0.354900
0.370590
0.345100
0.349020
0.345100
0.335290
0.335290
0.278430
0.213730
0.209800
0.796080
1.321600
1.056900
0.550980
0.309800
0.268630
0.349020
0.335290
0.335290
0.358820
0.358820
0.370590
0.380390
0.370590
0.390200
0.403920
0.425490
0.439220
0.454900
0.460780
0.480390
0.494120
0.505880
0.554900
0.590200
0.600000
0.619610
0.660780
0.664710
0.629410
0.619610
0.650980
0.645100
0.590200
0.515690
0.439220
0.374510
0.335290
0.300000
0.294120
0.278430
0.300000
0.268630
0.268630
0.268630
0.264710
0.245100
0.290200
0.294120
0.278430
0.309800
0.303920
0.319610
0.309800
0.290200
0.300000
0.300000
0.303920
0.284310
0.278430
0.329410
0.339220
0.339220
0.354900
0.345100
0.364710
0.358820
0.345100
0.349020
0.329410
0.329410
0.335290
0.323530
0.313730
0.313730
0.323530
0.313730
0.303920
0.258820
0.200000
0.290200
0.825490
1.327500
1.047100
0.554900
0.335290
0.284310
0.313730
0.339220
0.349020
0.335290
0.323530
0.335290
0.349020
0.374510
0.384310
0.403920
0.409800
0.419610
0.435290
0.449020
0.484310
0.505880
0.519610
0.550980
0.590200
0.605880
0.635290
0.645100
0.660780
0.664710
0.654900
0.664710
0.654900
0.570590
0.490200
0.435290
0.390200
0.345100
0.329410
0.309800
0.290200
0.278430
0.268630
0.284310
0.290200
0.300000
0.300000
0.294120
0.290200
0.290200
0.303920
0.309800
0.313730
0.303920
0.319610
0.303920
0.303920
0.294120
0.313730
0.319610
0.313730
0.345100
0.354900
0.319610
0.335290
0.364710
0.384310
0.394120
0.390200
0.384310
0.374510
0.354900
0.329410
0.319610
0.319610
0.329410
0.339220
0.349020
0.303920
0.209800
0.345100
0.921570
1.327500
0.925490
0.505880
0.313730
0.284310
0.323530
0.329410
0.329410
0.339220
0.364710
0.394120
0.400000
0.380390
0.384310
0.390200
0.409800
0.429410
0.460780
0.480390
0.505880
0.525490
0.545100
0.570590
0.600000
0.635290
0.660780
0.686270
0.690200
0.676470
0.670590
0.650980
0.600000
0.554900
0.515690
0.445100
0.374510
0.329410
0.294120
0.290200
0.284310
0.290200
0.274510
0.268630
0.278430
0.284310
0.294120
0.294120
0.290200
0.290200
0.300000
0.313730
0.313730
0.319610
0.329410
0.313730
0.309800
0.300000
0.313730
0.313730
0.319610
0.323530
0.329410
0.364710
0.380390
0.370590
0.364710
0.358820
0.358820
0.364710
0.358820
0.339220
0.319610
0.313730
0.313730
0.303920
0.264710
0.223530
0.394120
0.950980
1.302000
0.856860
0.445100
0.290200
0.258820
0.354900
0.370590
0.345100
0.339220
0.335290
0.345100
0.364710
0.380390
0.403920
0.409800
0.415690
0.425490
0.449020
0.484310
0.505880
0.529410
0.554900
0.596080
0.625490
0.641180
0.654900
0.664710
0.680390
0.686270
0.664710
0.641180
0.600000
0.539220
0.470590
0.403920
0.354900
0.339220
0.323530
0.313730
0.294120
0.278430
0.268630
0.249020
0.254900
0.249020
0.264710
0.278430
0.278430
0.300000
0.313730
0.313730
0.313730
0.300000
0.290200
0.294120
0.300000
0.323530
0.319610
0.339220
0.345100
0.339220
0.349020
0.364710
0.380390
0.364710
0.358820
0.349020
0.349020
0.335290
0.323530
0.313730
0.319610
0.309800
0.294120
0.233330
0.184310
0.464710
1.092200
1.337300
0.835290
0.435290
0.274510
0.294120
0.335290
0.345100
0.329410
0.345100
0.358820
0.370590
0.364710
0.394120
0.409800
0.403920
0.425490
0.435290
0.425490
0.470590
0.480390
0.474510
0.554900
0.584310
0.609800
0.600000
0.660780
0.690200
0.696080
0.676470
0.664710
0.629410
0.580390
0.535290
0.480390
0.439220
0.374510
0.323530
0.300000
0.245100
0.249020
0.254900
0.268630
0.278430
0.290200
0.303920
0.313730
0.294120
0.290200
0.303920
0.300000
0.294120
0.303920
0.294120
0.290200
0.303920
0.300000
0.294120
0.300000
0.313730
0.319610
0.329410
0.354900
0.384310
0.400000
0.403920
0.370590
0.335290
0.323530
0.309800
0.309800
0.313730
0.309800
0.319610
0.309800
0.245100
0.154900
0.300000
0.876470
1.366700
1.005900
0.515690
0.319610
0.284310
0.345100
0.345100
0.339220
0.335290
0.345100
0.349020
0.358820
0.370590
0.364710
0.390200
0.415690
0.435290
0.454900
0.490200
0.505880
0.525490
0.560780
0.574510
0.570590
0.605880
0.645100
0.664710
0.664710
0.650980
0.660780
0.664710
0.625490
0.554900
0.490200
0.439220
0.380390
0.354900
0.300000
0.290200
0.309800
0.313730
0.290200
0.258820
0.254900
0.249020
0.258820
0.284310
0.300000
0.313730
0.300000
0.319610
0.329410
0.313730
0.313730
0.300000
0.290200
0.319610
0.329410
0.335290
0.339220
0.339220
0.370590
0.380390
0.384310
0.394120
0.374510
0.370590
0.349020
0.335290
0.335290
0.339220
0.313730
0.309800
0.313730
0.254900
0.174510
0.354900
0.976470
1.378400
0.937250
0.494120
0.329410
0.300000
0.339220
0.345100
0.313730
0.335290
0.345100
0.345100
0.364710
0.384310
0.390200
0.419610
0.425490
0.439220
0.454900
0.480390
0.490200
0.500000
0.529410
0.584310
0.590200
0.619610
0.641180
0.660780
0.696080
0.700000
0.686270
0.650980
0.609800
0.539220
0.494120
0.435290
0.364710
0.319610
0.294120
0.290200
0.284310
0.300000
0.313730
0.284310
0.274510
0.268630
0.284310
0.313730
0.309800
0.309800
0.300000
0.309800
0.313730
0.335290
0.313730
0.309800
0.300000
0.313730
0.319610
0.329410
0.339220
0.329410
0.345100
0.380390
0.394120
0.403920
0.390200
0.364710
0.358820
0.339220
0.319610
0.313730
0.319610
0.329410
0.335290
0.309800
0.258820
0.200000
0.445100
1.047100
1.321600
0.856860
0.464710
0.294120
0.284310
0.335290
0.339220
0.339220
0.349020
0.358820
0.380390
0.384310
0.384310
0.400000
0.415690
0.429410
0.435290
0.454900
0.464710
0.505880
0.529410
0.570590
0.596080
0.609800
0.615690
0.641180
0.664710
0.676470
0.676470
0.680390
0.629410
0.596080
0.539220
0.474510
0.425490
0.370590
0.335290
0.300000
0.303920
0.268630
0.268630
0.274510
0.284310
0.284310
0.290200
0.290200
0.290200
0.290200
0.309800
0.303920
0.319610
0.313730
0.309800
0.300000
0.290200
0.284310
0.309800
0.323530
0.339220
0.313730
0.309800
0.354900
0.380390
0.374510
0.380390
0.394120
0.358820
0.349020
0.339220
0.323530
0.339220
0.329410
0.319610
0.323530
0.264710
0.188240
0.174510
0.700000
1.262700
1.302000
0.615690
0.384310
0.274510
0.319610
0.335290
0.303920
0.329410
0.339220
0.339220
0.364710
0.390200
0.394120
0.400000
0.409800
0.435290
0.449020
0.445100
0.454900
0.484310
0.509800
0.560780
0.596080
0.600000
0.615690
0.650980
0.664710
0.670590
0.676470
0.670590
0.625490
0.560780
0.490200
0.435290
0.384310
0.349020
0.313730
0.290200
0.284310
0.284310
0.268630
0.264710
0.274510
0.268630
0.264710
0.258820
0.264710
0.274510
0.290200
0.274510
0.290200
0.300000
0.294120
0.294120
0.294120
0.309800
0.313730
0.303920
0.313730
0.345100
0.364710
0.384310
0.380390
0.358820
0.345100
0.339220
0.319610
0.323530
0.313730
0.313730
0.329410
0.335290
0.323530
0.278430
0.229410
0.194120
0.590200
1.186300
1.337300
0.670590
0.354900
0.239220
0.284310
0.309800
0.329410
0.339220
0.345100
0.345100
0.354900
0.370590
0.390200
0.409800
0.415690
0.435290
0.449020
0.460780
0.474510
0.505880
0.525490
0.570590
0.590200
0.615690
0.629410
0.650980
0.680390
0.686270
0.680390
0.686270
0.641180
0.584310
0.515690
0.445100
0.390200
0.349020
0.313730
0.290200
0.274510
0.264710
0.258820
0.284310
0.268630
0.245100
0.258820
0.284310
0.290200
0.294120
0.303920
0.313730
0.313730
0.300000
0.303920
0.309800
0.313730
0.319610
0.309800
0.313730
0.309800
0.323530
0.329410
0.319610
0.370590
0.380390
0.400000
0.380390
0.364710
0.354900
0.339220
0.345100
0.339220
0.335290
0.339220
0.339220
0.309800
0.239220
0.194120
0.484310
1.121600
1.362700
0.786270
0.415690
0.290200
0.313730
0.303920
0.358820
0.364710
0.354900
0.354900
0.358820
0.358820
0.380390
0.394120
0.409800
0.409800
0.429410
0.439220
0.480390
0.494120
0.525490
0.550980
0.590200
0.641180
0.664710
0.686270
0.690200
0.680390
0.664710
0.670590
0.645100
0.580390
0.519610
0.464710
0.419610
0.354900
0.309800
0.294120
0.303920
0.294120
0.284310
0.274510
0.278430
0.245100
0.254900
0.268630
0.290200
0.303920
0.294120
0.290200
0.300000
0.294120
0.290200
0.300000
0.294120
0.309800
0.290200
0.309800
0.319610
0.335290
0.339220
0.345100
0.339220
0.329410
0.358820
0.374510
0.380390
0.358820
0.339220
0.349020
0.358820
0.339220
0.323530
0.319610
0.319610
0.329410
0.323530
0.294120
0.229410
0.200000
0.709800
1.302000
1.372500
0.645100
0.358820
0.278430
0.319610
0.335290
0.313730
0.335290
0.358820
0.354900
0.364710
0.374510
0.380390
0.400000
0.394120
0.419610
0.454900
0.449020
0.474510
0.505880
0.525490
0.550980
0.574510
0.615690
0.619610
0.654900
0.700000
0.696080
0.676470
0.660780
0.625490
0.545100
0.500000
0.460780
0.400000
0.339220
0.290200
0.274510
0.258820
0.264710
0.290200
0.300000
0.290200
0.284310
0.258820
0.254900
0.264710
0.258820
0.300000
0.309800
0.319610
0.303920
0.290200
0.274510
0.284310
0.309800
0.313730
0.319610
0.290200
0.309800
0.313730
0.335290
0.313730
0.339220
0.335290
0.370590
0.384310
0.354900
0.370590
0.370590
0.358820
0.374510
0.364710
0.345100
0.339220
0.313730
0.300000
0.313730
0.335290
0.245100
0.203920
0.519610
1.117600
1.327500
0.805880
0.435290
0.294120
0.313730
0.335290
0.339220
0.313730
0.339220
0.374510
0.384310
0.370590
0.394120
0.400000
0.394120
0.400000
0.419610
0.435290
0.449020
0.500000
0.525490
0.550980
0.564710
0.584310
0.619610
0.654900
0.664710
0.654900
0.664710
0.645100
0.635290
0.590200
0.525490
0.454900
0.429410
0.380390
0.354900
0.323530
0.300000
0.264710
0.268630
0.278430
0.268630
0.268630
0.264710
0.278430
0.290200
0.284310
0.290200
0.290200
0.300000
0.313730
0.319610
0.313730
0.309800
0.329410
0.354900
0.319610
0.309800
0.303920
0.309800
0.323530
0.335290
0.323530
0.335290
0.345100
0.358820
0.380390
0.384310
0.384310
0.380390
0.374510
0.364710
0.354900
0.339220
0.339220
0.335290
0.323530
0.335290
0.290200
0.229410
0.200000
0.635290
1.252900
1.362700
0.696080
0.384310
0.290200
0.335290
0.339220
0.339220
0.349020
0.358820
0.358820
0.380390
0.390200
0.384310
0.400000
0.403920
0.409800
0.419610
0.445100
0.480390
0.505880
0.525490
0.560780
0.580390
0.625490
0.650980
0.664710
0.664710
0.690200
0.696080
0.660780
0.619610
0.570590
0.519610
0.460780
0.415690
0.354900
0.323530
0.309800
0.313730
0.290200
0.284310
0.264710
0.264710
0.258820
0.290200
0.278430
0.268630
0.278430
0.300000
0.303920
0.303920
0.309800
0.313730
0.309800
0.335290
0.313730
0.313730
0.309800
0.329410
0.345100
0.349020
0.358820
0.313730
0.323530
0.349020
0.354900
0.364710
0.384310
0.394120
0.358820
0.345100
0.364710
0.354900
0.319610
0.329410
0.339220
0.349020
0.339220
0.300000
0.249020
0.329410
0.850980
1.337300
1.037300
0.554900
0.349020
0.309800
0.345100
0.349020
0.354900
0.335290
0.323530
0.319610
0.349020
0.358820
0.370590
0.384310
0.403920
0.435290
0.454900
0.484310
0.500000
0.519610
0.550980
0.590200
0.609800
0.619610
0.650980
0.670590
0.670590
0.680390
0.690200
0.676470
0.645100
0.590200
0.529410
0.445100
0.370590
0.335290
0.313730
0.290200
0.274510
0.274510
0.274510
0.284310
0.278430
0.290200
0.290200
0.309800
0.303920
0.284310
0.284310
0.278430
0.278430
0.294120
0.309800
0.319610
0.335290
0.329410
0.303920
0.300000
0.319610
0.323530
0.339220
0.339220
0.339220
0.380390
0.400000
0.409800
0.403920
0.374510
0.354900
0.339220
0.319610
0.323530
0.329410
0.313730
0.335290
0.339220
0.274510
0.223530
0.425490
1.027500
1.347100
0.886270
0.480390
0.303920
0.278430
0.319610
0.335290
0.339220
0.354900
0.349020
0.364710
0.380390
0.390200
0.390200
0.409800
0.429410
0.435290
0.460780
0.490200
0.500000
0.519610
0.550980
0.605880
0.635290
0.670590
0.686270
0.680390
0.700000
0.690200
0.686270
0.664710
0.615690
0.550980
0.500000
0.445100
0.384310
0.349020
0.309800
0.284310
0.278430
0.274510
0.290200
0.300000
0.309800
0.278430
0.264710
0.258820
0.294120
0.323530
0.313730
0.323530
0.313730
0.309800
0.309800
0.290200
0.313730
0.319610
0.319610
0.329410
0.323530
0.329410
0.294120
0.319610
0.345100
0.358820
0.380390
0.409800
0.400000
0.384310
0.384310
0.364710
0.354900
0.354900
0.339220
0.339220
0.349020
0.323530
0.313730
0.290200
0.219610
0.194120
0.660780
1.282400
1.437300
0.721570
0.409800
0.300000
0.345100
0.349020
0.345100
0.354900
0.335290
0.358820
0.364710
0.390200
0.400000
0.374510
0.400000
0.429410
0.435290
0.454900
0.480390
0.505880
0.519610
0.545100
0.590200
0.615690
0.625490
0.654900
0.664710
0.686270
0.709800
0.690200
0.654900
0.584310
0.535290
0.454900
0.390200
0.370590
0.345100
0.313730
0.284310
0.264710
0.264710
0.268630
0.268630
0.254900
0.264710
0.278430
0.274510
0.290200
0.294120
0.290200
0.284310
0.284310
0.290200
0.300000
0.313730
0.303920
0.323530
0.313730
0.290200
0.294120
0.313730
0.323530
0.339220
0.370590
0.380390
0.384310
0.370590
0.358820
0.370590
0.349020
0.345100
0.323530
0.319610
0.303920
0.303920
0.313730
0.274510
0.203920
0.174510
0.700000
1.307800
1.372500
0.641180
0.354900
0.274510
0.313730
0.313730
0.319610
0.313730
0.335290
0.358820
0.370590
0.374510
0.370590
0.394120
0.390200
0.409800
0.435290
0.454900
0.464710
0.500000
0.529410
0.564710
0.596080
0.609800
0.635290
0.676470
0.680390
0.664710
0.676470
0.650980
0.619610
0.574510
0.519610
0.484310
0.425490
0.358820
0.309800
0.300000
0.290200
0.278430
0.284310
0.254900
0.300000
0.290200
0.290200
0.309800
0.290200
0.278430
0.274510
0.313730
0.335290
0.329410
0.300000
0.309800
0.290200
0.294120
0.300000
0.313730
0.323530
0.319610
0.339220
0.358820
0.358820
0.345100
0.390200
0.403920
0.394120
0.380390
0.358820
0.370590
0.349020
0.313730
0.294120
0.309800
0.339220
0.345100
0.290200
0.203920
0.188240
0.650980
1.266700
1.362700
0.731370
0.390200
0.264710
0.329410
0.358820
0.370590
0.345100
0.335290
0.354900
0.339220
0.403920
0.394120
0.409800
0.403920
0.429410
0.439220
0.470590
0.480390
0.490200
0.525490
0.519610
0.560780
0.600000
0.641180
0.676470
0.664710
0.680390
0.690200
0.650980
0.645100
0.590200
0.539220
0.480390
0.415690
0.349020
0.303920
0.303920
0.329410
0.284310
0.274510
0.258820
0.268630
0.278430
0.303920
0.278430
0.313730
0.309800
0.294120
0.278430
0.268630
0.268630
0.294120
0.303920
0.313730
0.303920
0.323530
0.300000
0.294120
0.303920
0.323530
0.354900
0.358820
0.339220
0.370590
0.394120
0.380390
0.339220
0.354900
0.358820
0.354900
0.345100
0.329410
0.345100
0.335290
0.323530
0.284310
0.200000
0.174510
0.690200
1.276500
1.347100
0.650980
0.384310
0.268630
0.319610
0.345100
0.345100
0.345100
0.349020
0.345100
0.354900
0.370590
0.384310
0.390200
0.380390
0.419610
0.435290
0.454900
0.474510
0.505880
0.529410
0.554900
0.574510
0.609800
0.629410
0.629410
0.654900
0.664710
0.670590
0.676470
0.629410
0.580390
0.519610
0.445100
0.390200
0.358820
0.319610
0.290200
0.268630
0.268630
0.274510
0.274510
0.274510
0.284310
0.284310
0.284310
0.290200
0.284310
0.284310
0.284310
0.278430
0.284310
0.313730
0.303920
0.290200
0.294120
0.290200
0.290200
0.303920
0.309800
0.323530
0.339220
0.345100
0.380390
0.384310
0.384310
0.354900
0.339220
0.349020
0.345100
0.329410
0.319610
0.313730
0.339220
0.313730
0.300000
0.249020
0.184310
0.380390
0.986270
1.352900
0.905880
0.484310
0.303920
0.284310
0.339220
0.354900
0.319610
0.339220
0.339220
0.319610
0.345100
0.358820
0.370590
0.409800
0.425490
0.435290
0.435290
0.449020
0.494120
0.519610
0.539220
0.574510
0.590200
0.625490
0.650980
0.660780
0.654900
0.680390
0.690200
0.686270
0.635290
0.554900
0.484310
0.439220
0.354900
0.303920
0.290200
0.290200
0.290200
0.290200
0.278430
0.268630
0.274510
0.268630
0.274510
0.264710
0.278430
0.300000
0.309800
0.313730
0.309800
0.309800
0.309800
0.313730
0.335290
0.358820
0.349020
0.339220
0.339220
0.335290
0.319610
0.370590
0.384310
0.384310
0.390200
0.374510
0.370590
0.358820
0.339220
0.354900
0.358820
0.335290
0.329410
0.294120
0.223530
0.188240
0.570590
1.172500
1.327500
0.654900
0.364710
0.290200
0.323530
0.335290
0.329410
0.349020
0.358820
0.374510
0.380390
0.374510
0.370590
0.384310
0.403920
0.435290
0.454900
0.464710
0.490200
0.500000
0.525490
0.550980
0.584310
0.629410
0.650980
0.664710
0.709800
0.715690
0.686270
0.670590
0.619610
0.574510
0.490200
0.435290
0.390200
0.354900
0.335290
0.309800
0.294120
0.294120
0.278430
0.258820
0.249020
0.264710
0.278430
0.290200
0.300000
0.294120
0.290200
0.284310
0.290200
0.303920
0.313730
0.323530
0.335290
0.319610
0.319610
0.329410
0.323530
0.349020
0.358820
0.374510
0.384310
0.400000
0.415690
0.394120
0.370590
0.364710
0.339220
0.313730
0.303920
0.329410
0.349020
0.323530
0.258820
0.174510
0.345100
1.002000
1.411800
0.976470
0.490200
0.319610
0.294120
0.335290
0.364710
0.380390
0.370590
0.354900
0.349020
0.354900
0.384310
0.425490
0.425490
0.464710
0.435290
0.454900
0.460780
0.509800
0.525490
0.529410
0.560780
0.574510
0.625490
0.660780
0.700000
0.715690
0.700000
0.686270
0.676470
0.619610
0.584310
0.515690
0.403920
0.358820
0.335290
0.349020
0.258820
0.233330
0.239220
0.254900
0.268630
0.258820
0.268630
0.258820
0.290200
0.300000
0.313730
0.313730
0.278430
0.274510
0.313730
0.309800
0.284310
0.290200
0.300000
0.303920
0.309800
0.345100
0.354900
0.384310
0.435290
0.409800
0.374510
0.354900
0.358820
0.335290
0.339220
0.309800
0.323530
0.335290
0.329410
0.358820
0.300000
0.229410
0.188240
0.539220
1.196100
1.411800
0.790200
0.419610
0.300000
0.294120
0.329410
0.329410
0.335290
0.339220
0.364710
0.380390
0.409800
0.409800
0.409800
0.415690
0.403920
0.394120
0.429410
0.480390
0.519610
0.550980
0.545100
0.590200
0.619610
0.654900
0.690200
0.696080
0.680390
0.670590
0.690200
0.635290
0.564710
0.500000
0.445100
0.403920
0.390200
0.349020
0.284310
0.264710
0.278430
0.258820
0.264710
0.274510
0.239220
0.229410
0.274510
0.290200
0.300000
0.284310
0.313730
0.309800
0.313730
0.284310
0.290200
0.313730
0.294120
0.313730
0.323530
0.313730
0.313730
0.345100
0.384310
0.364710
0.339220
0.370590
0.380390
0.374510
0.394120
0.364710
0.313730
0.300000
0.294120
0.323530
0.329410
0.319610
0.268630
0.164710
0.278430
0.880390
1.388200
1.037300
0.560780
0.335290
0.284310
0.323530
0.313730
0.339220
0.329410
0.345100
0.358820
0.370590
0.370590
0.384310
0.394120
0.415690
0.403920
0.449020
0.474510
0.470590
0.490200
0.525490
0.550980
0.564710
0.609800
0.641180
0.660780
0.670590
0.690200
0.686270
0.619610
0.584310
0.535290
0.470590
0.429410
0.390200
0.345100
0.339220
0.303920
0.294120
0.290200
0.258820
0.245100
0.258820
0.254900
0.268630
0.258820
0.303920
0.335290
0.323530
0.313730
0.323530
0.290200
0.274510
0.309800
0.323530
0.313730
0.300000
0.294120
0.323530
0.294120
0.339220
0.358820
0.364710
0.370590
0.394120
0.374510
0.345100
0.370590
0.354900
0.374510
0.339220
0.319610
0.290200
0.329410
0.339220
0.294120
0.200000
0.358820
0.890200
1.337300
0.956860
0.539220
0.323530
0.294120
0.335290
0.349020
0.345100
0.329410
0.354900
0.358820
0.358820
0.358820
0.380390
0.374510
0.400000
0.429410
0.445100
0.474510
0.500000
0.505880
0.525490
0.539220
0.570590
0.609800
0.645100
0.676470
0.664710
0.664710
0.660780
0.641180
0.605880
0.564710
0.474510
0.403920
0.358820
0.309800
0.278430
0.274510
0.309800
0.300000
0.284310
0.290200
0.284310
0.258820
0.268630
0.274510
0.264710
0.258820
0.290200
0.300000
0.268630
0.290200
0.294120
0.335290
0.313730
0.290200
0.319610
0.323530
0.284310
0.309800
0.323530
0.345100
0.339220
0.374510
0.380390
0.374510
0.384310
0.354900
0.370590
0.354900
0.339220
0.309800
0.290200
0.313730
0.313730
0.274510
0.245100
0.219610
0.609800
1.207800
1.321600
0.715690
0.449020
0.274510
0.268630
0.309800
0.335290
0.329410
0.364710
0.400000
0.384310
0.339220
0.339220
0.384310
0.425490
0.435290
0.409800
0.439220
0.464710
0.505880
0.529410
0.570590
0.605880
0.645100
0.650980
0.664710
0.670590
0.664710
0.676470
0.670590
0.635290
0.584310
0.509800
0.445100
0.380390
0.358820
0.329410
0.300000
0.268630
0.258820
0.268630
0.290200
0.303920
0.290200
0.268630
0.274510
0.249020
0.274510
0.284310
0.278430
0.290200
0.300000
0.313730
0.313730
0.313730
0.329410
0.313730
0.313730
0.335290
0.345100
0.358820
0.364710
0.364710
0.380390
0.374510
0.390200
0.374510
0.349020
0.339220
0.294120
0.300000
0.313730
0.309800
0.278430
0.229410
0.200000
0.650980
1.288200
1.433300
0.696080
0.345100
0.278430
0.323530
0.358820
0.403920
0.354900
0.339220
0.358820
0.345100
0.339220
0.364710
0.384310
0.403920
0.409800
0.439220
0.464710
0.529410
0.550980
0.525490
0.535290
0.554900
0.605880
0.641180
0.654900
0.680390
0.705880
0.715690
0.700000
0.650980
0.580390
0.500000
0.435290
0.374510
0.329410
0.290200
0.284310
0.274510
0.284310
0.278430
0.290200
0.290200
0.274510
0.284310
0.268630
0.274510
0.268630
0.268630
0.278430
0.300000
0.290200
0.319610
0.339220
0.329410
0.309800
0.294120
0.313730
0.313730
0.323530
0.339220
0.335290
0.349020
0.374510
0.403920
0.384310
0.374510
0.329410
0.329410
0.313730
0.323530
0.323530
0.339220
0.329410
0.339220
0.284310
0.209800
0.188240
0.776470
1.378400
1.411800
0.615690
0.345100
0.294120
0.335290
0.354900
0.335290
0.313730
0.339220
0.345100
0.339220
0.354900
0.380390
0.409800
0.419610
0.425490
0.435290
0.429410
0.449020
0.480390
0.539220
0.564710
0.570590
0.609800
0.629410
0.619610
0.654900
0.676470
0.686270
0.654900
0.619610
0.554900
0.484310
0.429410
0.400000
0.339220
0.294120
0.268630
0.278430
0.274510
0.264710
0.258820
0.284310
0.264710
0.258820
0.278430
0.268630
0.274510
0.268630
0.309800
0.300000
0.290200
0.290200
0.284310
0.278430
0.300000
0.345100
0.323530
0.290200
0.309800
0.313730
0.303920
0.349020
0.390200
0.403920
0.358820
0.370590
0.374510
0.354900
0.319610
0.284310
0.278430
0.323530
0.349020
0.300000
0.223530
0.168630
0.484310
1.111800
1.352900
0.805880
0.464710
0.329410
0.313730
0.329410
0.349020
0.354900
0.329410
0.323530
0.339220
0.384310
0.374510
0.400000
0.419610
0.384310
0.390200
0.445100
0.500000
0.529410
0.539220
0.519610
0.529410
0.560780
0.600000
0.654900
0.664710
0.696080
0.715690
0.725490
0.619610
0.564710
0.505880
0.435290
0.364710
0.345100
0.309800
0.284310
0.303920
0.300000
0.258820
0.249020
0.268630
0.245100
0.294120
0.303920
0.313730
0.303920
0.300000
0.309800
0.268630
0.309800
0.319610
0.290200
0.313730
0.323530
0.319610
0.300000
0.309800
0.345100
0.329410
0.319610
0.335290
0.323530
0.380390
0.409800
0.403920
0.419610
0.374510
0.339220
0.339220
0.319610
0.364710
0.370590
0.339220
0.374510
0.258820
0.194120
0.290200
0.825490
1.388200
1.131400
0.605880
0.364710
0.300000
0.380390
0.403920
0.354900
0.370590
0.323530
0.329410
0.323530
0.358820
0.364710
0.358820
0.409800
0.449020
0.474510
0.480390
0.454900
0.439220
0.515690
0.564710
0.550980
0.615690
0.650980
0.645100
0.654900
0.676470
0.680390
0.660780
0.629410
0.590200
0.529410
0.464710
0.370590
0.319610
0.294120
0.303920
0.268630
0.290200
0.284310
0.303920
0.309800
0.313730
0.278430
0.268630
0.274510
0.254900
0.294120
0.319610
0.303920
0.290200
0.309800
0.319610
0.319610
0.313730
0.323530
0.329410
0.339220
0.364710
0.335290
0.339220
0.358820
0.384310
0.370590
0.364710
0.384310
0.374510
0.358820
0.390200
0.370590
0.339220
0.313730
0.300000
0.335290
0.319610
0.278430
0.245100
0.539220
1.137300
1.343100
0.780390
0.445100
0.319610
0.354900
0.364710
0.349020
0.345100
0.358820
0.349020
0.358820
0.354900
0.354900
0.364710
0.384310
0.394120
0.429410
0.439220
0.460780
0.484310
0.519610
0.554900
0.550980
0.564710
0.584310
0.609800
0.641180
0.654900
0.676470
0.645100
0.615690
0.564710
0.515690
0.460780
0.400000
0.364710
0.339220
0.313730
0.303920
0.278430
0.249020
0.219610
0.213730
0.268630
0.274510
0.268630
0.290200
0.284310
0.294120
0.290200
0.268630
0.278430
0.300000
0.303920
0.313730
0.300000
0.290200
0.313730
0.313730
0.313730
0.339220
0.364710
0.384310
0.400000
0.384310
0.370590
0.370590
0.370590
0.364710
0.358820
0.303920
0.313730
0.323530
0.339220
0.329410
0.268630
0.209800
0.194120
0.750980
1.327500
1.352900
0.645100
0.415690
0.323530
0.339220
0.329410
0.335290
0.349020
0.339220
0.364710
0.358820
0.358820
0.380390
0.384310
0.403920
0.439220
0.435290
0.454900
0.474510
0.490200
0.525490
0.564710
0.590200
0.596080
0.619610
0.670590
0.690200
0.680390
0.690200
0.700000
0.641180
0.560780
0.494120
0.429410
0.370590
0.303920
0.290200
0.284310
0.290200
0.284310
0.258820
0.245100
0.268630
0.290200
0.278430
0.290200
0.290200
0.294120
0.290200
0.274510
0.268630
0.268630
0.274510
0.309800
0.319610
0.313730
0.323530
0.319610
0.339220
0.380390
0.384310
0.370590
0.358820
0.354900
0.358820
0.339220
0.329410
0.335290
0.323530
0.335290
0.319610
0.300000
0.249020
0.203920
0.564710
1.182400
1.372500
0.715690
0.390200
0.284310
0.278430
0.323530
0.345100
0.354900
0.358820
0.358820
0.358820
0.370590
0.380390
0.409800
0.415690
0.435290
0.439220
0.435290
0.470590
0.505880
0.539220
0.570590
0.605880
0.654900
0.670590
0.686270
0.690200
0.705880
0.696080
0.676470
0.641180
0.596080
0.539220
0.449020
0.374510
0.329410
0.294120
0.284310
0.264710
0.254900
0.268630
0.300000
0.284310
0.278430
0.290200
0.264710
0.294120
0.313730
0.294120
0.268630
0.290200
0.303920
0.303920
0.313730
0.303920
0.313730
0.339220
0.335290
0.339220
0.358820
0.394120
0.415690
0.419610
0.358820
0.345100
0.345100
0.354900
0.319610
0.323530
0.329410
0.309800
0.339220
0.268630
0.203920
0.184310
0.731370
1.327500
1.443100
0.676470
0.374510
0.284310
0.329410
0.345100
0.329410
0.313730
0.319610
0.358820
0.370590
0.384310
0.415690
0.425490
0.409800
0.415690
0.439220
0.484310
0.494120
0.480390
0.519610
0.554900
0.596080
0.635290
0.660780
0.670590
0.660780
0.670590
0.696080
0.676470
0.680390
0.580390
0.529410
0.474510
0.419610
0.349020
0.309800
0.268630
0.264710
0.249020
0.264710
0.278430
0.300000
0.290200
0.278430
0.268630
0.274510
0.258820
0.268630
0.294120
0.319610
0.335290
0.339220
0.323530
0.300000
0.313730
0.313730
0.339220
0.349020
0.335290
0.319610
0.370590
0.358820
0.384310
0.380390
0.374510
0.384310
0.358820
0.339220
0.319610
0.319610
0.323530
0.313730
0.278430
0.188240
0.168630
0.680390
1.337300
1.452900
0.709800
0.409800
0.323530
0.335290
0.313730
0.284310
0.313730
0.278430
0.319610
0.354900
0.409800
0.400000
0.380390
0.403920
0.409800
0.384310
0.415690
0.449020
0.490200
0.509800
0.554900
0.554900
0.596080
0.619610
0.629410
0.654900
0.645100
0.670590
0.686270
0.596080
0.584310
0.535290
0.425490
0.364710
0.349020
0.323530
0.294120
0.300000
0.254900
0.223530
0.284310
0.290200
0.274510
0.264710
0.268630
0.258820
0.290200
0.274510
0.294120
0.278430
0.319610
0.313730
0.319610
0.294120
0.303920
0.313730
0.290200
0.313730
0.335290
0.345100
0.374510
0.339220
0.380390
0.384310
0.364710
0.329410
0.319610
0.339220
0.345100
0.329410
0.335290
0.313730
0.284310
0.219610
0.194120
0.505880
1.166700
1.382400
0.805880
0.435290
0.313730
0.294120
0.345100
0.370590
0.319610
0.294120
0.329410
0.384310
0.358820
0.339220
0.380390
0.409800
0.394120
0.425490
0.435290
0.460780
0.505880
0.529410
0.560780
0.550980
0.596080
0.635290
0.664710
0.676470
0.650980
0.690200
0.654900
0.629410
0.580390
0.509800
0.415690
0.390200
0.374510
0.303920
0.319610
0.309800
0.268630
0.264710
0.264710
0.268630
0.264710
0.278430
0.290200
0.258820
0.278430
0.294120
0.309800
0.313730
0.278430
0.290200
0.300000
0.290200
0.313730
0.284310
0.303920
0.319610
0.294120
0.339220
0.345100
0.358820
0.384310
0.394120
0.354900
0.339220
0.345100
0.349020
0.313730
0.300000
0.309800
0.339220
0.323530
0.300000
0.245100
0.194120
0.390200
1.005900
1.382400
0.950980
0.494120
0.278430
0.264710
0.339220
0.323530
0.339220
0.345100
0.354900
0.380390
0.384310
0.390200
0.384310
0.394120
0.409800
0.409800
0.419610
0.449020
0.474510
0.509800
0.554900
0.574510
0.590200
0.605880
0.629410
0.660780
0.664710
0.676470
0.676470
0.650980
0.600000
0.535290
0.464710
0.409800
0.354900
0.313730
0.290200
0.268630
0.264710
0.264710
0.268630
0.274510
0.268630
0.249020
0.249020
0.258820
0.264710
0.290200
0.290200
0.284310
0.300000
0.290200
0.303920
0.278430
0.274510
0.290200
0.309800
0.313730
0.319610
0.313730
0.329410
0.354900
0.374510
0.384310
0.390200
0.364710
0.358820
0.358820
0.335290
0.323530
0.313730
0.319610
0.335290
0.339220
0.278430
0.203920
0.188240
0.786270
1.333300
1.137300
0.625490
0.380390
0.294120
0.339220
0.349020
0.354900
0.349020
0.370590
0.354900
0.339220
0.380390
0.394120
0.409800
0.409800
0.439220
0.464710
0.454900
0.494120
0.505880
0.525490
0.564710
0.600000
0.635290
0.680390
0.715690
0.705880
0.700000
0.705880
0.686270
0.645100
0.590200
0.519610
0.445100
0.354900
0.300000
0.290200
0.274510
0.268630
0.284310
0.290200
0.254900
0.258820
0.254900
0.294120
0.290200
0.274510
0.278430
0.290200
0.319610
0.323530
0.313730
0.300000
0.290200
0.329410
0.303920
0.290200
0.309800
0.335290
0.345100
0.364710
0.364710
0.380390
0.384310
0.364710
0.374510
0.339220
0.319610
0.313730
0.319610
0.335290
0.339220
0.313730
0.274510
0.219610
0.339220
0.905880
1.292200
0.937250
0.505880
0.300000
0.264710
0.313730
0.345100
0.335290
0.329410
0.349020
0.349020
0.354900
0.370590
0.394120
0.409800
0.400000
0.425490
0.445100
0.474510
0.494120
0.519610
0.564710
0.590200
0.619610
0.670590
0.680390
0.664710
0.680390
0.670590
0.686270
0.650980
0.609800
0.535290
0.449020
0.409800
0.364710
0.313730
0.268630
0.249020
0.258820
0.258820
0.245100
0.245100
0.254900
0.258820
0.254900
0.254900
0.258820
0.254900
0.268630
0.268630
0.278430
0.309800
0.313730
0.309800
0.313730
0.313730
0.319610
0.329410
0.329410
0.339220
0.354900
0.364710
0.370590
0.358820
0.349020
0.329410
0.313730
0.313730
0.309800
0.319610
0.323530
0.335290
0.300000
0.245100
0.174510
0.390200
0.986270
1.352900
0.901960
0.454900
0.258820
0.249020
0.319610
0.349020
0.358820
0.329410
0.323530
0.329410
0.349020
0.370590
0.390200
0.415690
0.419610
0.429410
0.454900
0.470590
0.509800
0.525490
0.545100
0.574510
0.590200
0.625490
0.660780
0.690200
0.700000
0.705880
0.686270
0.670590
0.615690
0.539220
0.449020
0.384310
0.339220
0.284310
0.278430
0.290200
0.278430
0.290200
0.278430
0.264710
0.254900
0.245100
0.268630
0.258820
0.284310
0.290200
0.284310
0.309800
0.300000
0.290200
0.300000
0.309800
0.290200
0.290200
0.284310
0.290200
0.309800
0.364710
0.370590
0.358820
0.409800
0.394120
0.370590
0.335290
0.319610
0.313730
0.309800
0.309800
0.329410
0.339220
0.323530
0.335290
0.284310
0.229410
0.200000
0.700000
1.317600
1.366700
0.635290
0.335290
0.268630
0.309800
0.313730
0.303920
0.335290
0.345100
0.358820
0.364710
0.384310
0.384310
0.400000
0.384310
0.390200
0.435290
0.460780
0.494120
0.480390
0.525490
0.554900
0.570590
0.625490
0.650980
0.686270
0.705880
0.731370
0.721570
0.664710
0.609800
0.564710
0.484310
0.435290
0.403920
0.358820
0.339220
0.284310
0.245100
0.245100
0.268630
0.274510
0.268630
0.278430
0.294120
0.258820
0.268630
0.284310
0.290200
0.290200
0.284310
0.278430
0.309800
0.278430
0.274510
0.290200
0.284310
0.290200
0.303920
0.319610
0.339220
0.335290
0.339220
0.354900
0.358820
0.384310
0.370590
0.345100
0.370590
0.374510
0.358820
0.345100
0.323530
0.329410
0.309800
0.313730
0.284310
0.229410
0.188240
0.545100
1.182400
1.388200
0.786270
0.419610
0.313730
0.313730
0.339220
0.323530
0.319610
0.345100
0.335290
0.354900
0.349020
0.374510
0.390200
0.409800
0.409800
0.400000
0.425490
0.454900
0.505880
0.500000
0.550980
0.619610
0.641180
0.645100
0.650980
0.654900
0.645100
0.664710
0.700000
0.654900
0.600000
0.519610
0.470590
0.419610
0.370590
0.309800
0.290200
0.300000
0.264710
0.258820
0.303920
0.268630
0.245100
0.239220
0.254900
0.268630
0.278430
0.268630
0.294120
0.290200
0.313730
0.323530
0.303920
0.300000
0.303920
0.284310
0.294120
0.290200
0.309800
0.335290
0.345100
0.339220
0.323530
0.349020
0.358820
0.384310
0.403920
0.345100
0.329410
0.345100
0.323530
0.319610
0.335290
0.349020
0.345100
0.323530
0.284310
0.203920
0.313730
0.870590
1.372500
1.066700
0.545100
0.294120
0.254900
0.323530
0.354900
0.345100
0.339220
0.364710
0.380390
0.384310
0.403920
0.415690
0.390200
0.403920
0.415690
0.439220
0.464710
0.474510
0.509800
0.560780
0.605880
0.635290
0.619610
0.664710
0.676470
0.690200
0.705880
0.715690
0.696080
0.645100
0.580390
0.505880
0.429410
0.384310
0.354900
0.300000
0.309800
0.294120
0.290200
0.268630
0.290200
0.294120
0.278430
0.309800
0.313730
0.309800
0.294120
0.313730
0.300000
0.290200
0.290200
0.290200
0.294120
0.319610
0.323530
0.319610
0.323530
0.354900
0.364710
0.374510
0.358820
0.345100
0.354900
0.370590
0.384310
0.374510
0.384310
0.390200
0.370590
0.358820
0.370590
0.364710
0.374510
0.349020
0.339220
0.329410
0.290200
0.245100
0.219610
0.676470
1.266700
1.378400
0.700000
0.380390
0.300000
0.349020
0.349020
0.345100
0.349020
0.358820
0.358820
0.370590
0.384310
0.403920
0.419610
0.439220
0.454900
0.435290
0.460780
0.480390
0.505880
0.525490
0.564710
0.596080
0.625490
0.654900
0.690200
0.696080
0.686270
0.705880
0.696080
0.654900
0.600000
0.545100
0.500000
0.445100
0.364710
0.319610
0.294120
0.294120
0.290200
0.278430
0.268630
0.278430
0.290200
0.300000
0.309800
0.300000
0.290200
0.303920
0.309800
0.294120
0.309800
0.339220
0.339220
0.345100
0.354900
0.323530
0.309800
0.300000
0.329410
0.323530
0.345100
0.345100
0.354900
0.370590
0.384310
0.394120
0.394120
0.400000
0.370590
0.370590
0.374510
0.364710
0.358820
0.374510
0.358820
0.329410
0.313730
0.290200
0.233330
0.213730
0.776470
1.321600
1.337300
0.609800
0.370590
0.284310
0.335290
0.358820
0.370590
0.358820
0.364710
0.354900
0.364710
0.390200
0.394120
0.435290
0.445100
0.415690
0.429410
0.464710
0.494120
0.529410
0.560780
0.574510
0.600000
0.619610
0.645100
0.670590
0.700000
0.690200
0.690200
0.690200
0.650980
0.600000
0.535290
0.464710
0.390200
0.329410
0.303920
0.294120
0.290200
0.278430
0.264710
0.249020
0.254900
0.268630
0.284310
0.290200
0.274510
0.258820
0.274510
0.300000
0.294120
0.294120
0.300000
0.309800
0.313730
0.290200
0.278430
0.290200
0.319610
0.339220
0.339220
0.339220
0.354900
0.370590
0.380390
0.384310
0.364710
0.358820
0.358820
0.345100
0.335290
0.323530
0.319610
0.329410
0.313730
0.284310
0.245100
0.209800
0.509800
1.092200
1.302000
0.705880
0.345100
0.245100
0.290200
0.335290
0.354900
0.358820
0.358820
0.358820
0.354900
0.390200
0.403920
0.403920
0.415690
0.419610
0.445100
0.464710
0.480390
0.490200
0.525490
0.554900
0.590200
0.625490
0.650980
0.696080
0.721570
0.725490
0.700000
0.676470
0.609800
0.580390
0.519610
0.470590
0.403920
0.354900
0.313730
0.294120
0.278430
0.274510
0.290200
0.274510
0.268630
0.254900
0.249020
0.268630
0.278430
0.268630
0.274510
0.290200
0.294120
0.300000
0.290200
0.300000
0.294120
0.309800
0.303920
0.313730
0.294120
0.309800
0.319610
0.313730
0.335290
0.339220
0.370590
0.374510
0.409800
0.400000
0.370590
0.354900
0.345100
0.329410
0.313730
0.313730
0.323530
0.339220
0.319610
0.278430
0.203920
0.200000
0.760780
1.337300
1.366700
0.570590
0.319610
0.258820
0.313730
0.329410
0.319610
0.329410
0.354900
0.380390
0.370590
0.364710
0.370590
0.374510
0.403920
0.435290
0.439220
0.449020
0.490200
0.509800
0.529410
0.564710
0.590200
0.615690
0.676470
0.670590
0.686270
0.680390
0.700000
0.654900
0.629410
0.574510
0.519610
0.449020
0.394120
0.339220
0.319610
0.290200
0.284310
0.290200
0.274510
0.268630
0.268630
0.278430
0.268630
0.284310
0.278430
0.290200
0.303920
0.313730
0.300000
0.323530
0.329410
0.303920
0.290200
0.274510
0.268630
0.290200
0.309800
0.335290
0.345100
0.335290
0.319610
0.354900
0.384310
0.409800
0.415690
0.390200
0.358820
0.335290
0.319610
0.339220
0.319610
0.284310
0.313730
0.354900
0.323530
0.274510
0.203920
0.309800
0.870590
1.372500
1.051000
0.529410
0.329410
0.278430
0.303920
0.335290
0.329410
0.335290
0.349020
0.358820
0.370590
0.384310
0.390200
0.403920
0.415690
0.409800
0.425490
0.480390
0.494120
0.490200
0.539220
0.570590
0.600000
0.641180
0.635290
0.650980
0.664710
0.686270
0.705880
0.709800
0.635290
0.560780
0.515690
0.439220
0.380390
0.335290
