0.435970
0.432060
0.428150
0.424240
0.421310
0.418380
0.417400
0.416420
0.415440
0.414470
0.412510
0.411530
0.409580
0.407620
0.406650
0.406650
0.406650
0.407620
0.408600
0.408600
0.410560
0.411530
0.411530
0.410560
0.408600
0.406650
0.404690
0.404690
0.405670
0.408600
0.412510
0.420330
0.432060
0.452590
0.474100
0.495600
0.518080
0.534700
0.550340
0.564030
0.575760
0.584560
0.592380
0.596290
0.599220
0.601170
0.602150
0.603130
0.603130
0.601170
0.598240
0.593350
0.585530
0.577710
0.571850
0.562070
0.547410
0.533720
0.521020
0.509290
0.502440
0.497560
0.495600
0.494620
0.493650
0.493650
0.493650
0.491690
0.488760
0.486800
0.483870
0.480940
0.478010
0.475070
0.471160
0.468230
0.463340
0.458460
0.453570
0.448680
0.443790
0.438910
0.435000
0.431090
0.426200
0.423260
0.420330
0.418380
0.416420
0.414470
0.414470
0.413490
0.412510
0.412510
0.412510
0.412510
0.412510
0.413490
0.415440
0.417400
0.419350
0.420330
0.421310
0.421310
0.420330
0.419350
0.416420
0.414470
0.413490
0.413490
0.416420
0.421310
0.428150
0.436950
0.450640
0.468230
0.486800
0.505380
0.523950
0.541540
0.558160
0.571850
0.581620
0.587490
0.590420
0.590420
0.591400
0.590420
0.589440
0.586510
0.582600
0.577710
0.570870
0.563050
0.552300
0.540570
0.528840
0.517110
0.507330
0.497560
0.487780
0.479960
0.474100
0.470190
0.468230
0.467250
0.466280
0.464320
0.460410
0.456500
0.452590
0.447700
0.443790
0.438910
0.433040
0.430110
0.427170
0.425220
0.422290
0.419350
0.417400
0.415440
0.413490
0.412510
0.411530
0.411530
0.411530
0.412510
0.413490
0.413490
0.414470
0.415440
0.416420
0.416420
0.417400
0.417400
0.418380
0.418380
0.418380
0.419350
0.420330
0.420330
0.421310
0.420330
0.418380
0.416420
0.415440
0.413490
0.411530
0.410560
0.411530
0.414470
0.419350
0.427170
0.438910
0.453570
0.472140
0.489740
0.508310
0.523950
0.536660
0.548390
0.559140
0.567940
0.573800
0.577710
0.579670
0.579670
0.578690
0.576740
0.573800
0.569890
0.564030
0.555230
0.544480
0.532750
0.521020
0.509290
0.499510
0.491690
0.485830
0.479960
0.474100
0.469210
0.465300
0.462370
0.460410
0.457480
0.454550
0.450640
0.445750
0.440860
0.436950
0.432060
0.428150
0.425220
0.423260
0.421310
0.419350
0.417400
0.415440
0.413490
0.412510
0.410560
0.409580
0.408600
0.407620
0.407620
0.407620
0.407620
0.407620
0.408600
0.408600
0.407620
0.407620
0.407620
0.408600
0.408600
0.410560
0.411530
0.411530
0.412510
0.412510
0.410560
0.408600
0.406650
0.404690
0.404690
0.405670
0.408600
0.414470
0.424240
0.437930
0.456500
0.475070
0.492670
0.512220
0.530790
0.549360
0.565000
0.578690
0.589440
0.598240
0.604110
0.608020
0.609970
0.609970
0.609970
0.608990
0.608990
0.606060
0.601170
0.594330
0.584560
0.574780
0.563050
0.551320
0.539590
0.528840
0.521020
0.513200
0.506350
0.502440
0.498530
0.496580
0.494620
0.491690
0.488760
0.485830
0.480940
0.476050
0.472140
0.468230
0.465300
0.462370
0.460410
0.458460
0.456500
0.453570
0.449660
0.445750
0.441840
0.437930
0.433040
0.429130
0.424240
0.418380
0.414470
0.411530
0.409580
0.408600
0.409580
0.409580
0.409580
0.410560
0.410560
0.410560
0.410560
0.410560
0.410560
0.410560
0.411530
0.410560
0.410560
0.410560
0.409580
0.409580
0.409580
0.409580
0.410560
0.412510
0.416420
0.425220
0.437930
0.455520
0.476050
0.496580
0.518080
0.537630
0.555230
0.569890
0.580650
0.586510
0.592380
0.597260
0.599220
0.600200
0.600200
0.598240
0.594330
0.589440
0.584560
0.576740
0.566960
0.556210
0.545450
0.531770
0.517110
0.503420
0.491690
0.481920
0.476050
0.472140
0.470190
0.469210
0.467250
0.466280
0.465300
0.463340
0.461390
0.459430
0.455520
0.452590
0.449660
0.445750
0.440860
0.435000
0.430110
0.425220
0.421310
0.417400
0.414470
0.412510
0.410560
0.410560
0.408600
0.406650
0.405670
0.404690
0.403710
0.402740
0.401760
0.401760
0.400780
0.398830
0.396870
0.393940
0.391980
0.390030
0.389050
0.388070
0.388070
0.388070
0.388070
0.387100
0.385140
0.383190
0.381230
0.379280
0.378300
0.380250
0.382210
0.388070
0.396870
0.408600
0.425220
0.440860
0.457480
0.477030
0.495600
0.513200
0.529810
0.543500
0.554250
0.564030
0.570870
0.573800
0.575760
0.576740
0.576740
0.576740
0.573800
0.569890
0.562070
0.551320
0.539590
0.526880
0.515150
0.504400
0.496580
0.489740
0.484850
0.479960
0.477030
0.475070
0.473120
0.470190
0.469210
0.467250
0.465300
0.463340
0.460410
0.458460
0.455520
0.452590
0.448680
0.444770
0.439880
0.435970
0.432060
0.427170
0.422290
0.417400
0.414470
0.410560
0.407620
0.406650
0.405670
0.404690
0.404690
0.403710
0.401760
0.399800
0.399800
0.398830
0.398830
0.398830
0.398830
0.398830
0.399800
0.397850
0.395890
0.393940
0.391980
0.389050
0.386120
0.383190
0.381230
0.379280
0.380250
0.382210
0.385140
0.391010
0.400780
0.413490
0.430110
0.449660
0.471160
0.491690
0.510260
0.526880
0.540570
0.551320
0.559140
0.565000
0.568910
0.572830
0.574780
0.575760
0.575760
0.574780
0.570870
0.565000
0.558160
0.548390
0.537630
0.528840
0.520040
0.509290
0.500490
0.493650
0.487780
0.482890
0.480940
0.479960
0.478980
0.478980
0.477030
0.474100
0.471160
0.466280
0.461390
0.456500
0.451610
0.446730
0.441840
0.436950
0.433040
0.430110
0.426200
0.423260
0.421310
0.419350
0.416420
0.414470
0.413490
0.412510
0.411530
0.411530
0.411530
0.411530
0.411530
0.411530
0.410560
0.409580
0.409580
0.409580
0.409580
0.409580
0.410560
0.410560
0.414470
0.419350
0.421310
0.422290
0.422290
0.422290
0.422290
0.422290
0.423260
0.425220
0.430110
0.440860
0.455520
0.474100
0.495600
0.518080
0.539590
0.558160
0.572830
0.585530
0.596290
0.605080
0.612900
0.617790
0.619750
0.620720
0.621700
0.621700
0.620720
0.617790
0.612900
0.607040
0.599220
0.589440
0.579670
0.567940
0.555230
0.542520
0.530790
0.521020
0.513200
0.507330
0.502440
0.499510
0.498530
0.496580
0.494620
0.493650
0.491690
0.487780
0.483870
0.479960
0.476050
0.472140
0.468230
0.464320
0.459430
0.455520
0.451610
0.447700
0.443790
0.440860
0.435970
0.431090
0.427170
0.424240
0.421310
0.418380
0.417400
0.414470
0.412510
0.409580
0.407620
0.406650
0.406650
0.406650
0.408600
0.410560
0.412510
0.414470
0.415440
0.416420
0.416420
0.415440
0.414470
0.413490
0.411530
0.410560
0.410560
0.411530
0.414470
0.420330
0.428150
0.438910
0.453570
0.472140
0.491690
0.510260
0.528840
0.544480
0.558160
0.568910
0.576740
0.583580
0.588470
0.589440
0.590420
0.590420
0.589440
0.586510
0.582600
0.576740
0.569890
0.560120
0.548390
0.536660
0.523950
0.513200
0.505380
0.498530
0.492670
0.486800
0.482890
0.480940
0.479960
0.478980
0.478010
0.474100
0.470190
0.466280
0.462370
0.457480
0.452590
0.448680
0.444770
0.440860
0.435970
0.431090
0.427170
0.424240
0.421310
0.418380
0.416420
0.414470
0.413490
0.412510
0.412510
0.413490
0.413490
0.414470
0.416420
0.418380
0.420330
0.422290
0.422290
0.423260
0.423260
0.423260
0.423260
0.424240
0.423260
0.422290
0.420330
0.417400
0.415440
0.412510
0.409580
0.408600
0.409580
0.410560
0.413490
0.419350
0.427170
0.436950
0.450640
0.467250
0.485830
0.503420
0.520040
0.533720
0.543500
0.553270
0.562070
0.569890
0.575760
0.579670
0.582600
0.581620
0.580650
0.577710
0.570870
0.562070
0.552300
0.542520
0.530790
0.519060
0.508310
0.497560
0.489740
0.482890
0.477030
0.472140
0.469210
0.467250
0.466280
0.466280
0.464320
0.462370
0.458460
0.454550
0.449660
0.444770
0.439880
0.435000
0.431090
0.427170
0.425220
0.423260
0.422290
0.420330
0.417400
0.415440
0.414470
0.414470
0.414470
0.414470
0.414470
0.415440
0.416420
0.418380
0.419350
0.420330
0.421310
0.423260
0.423260
0.424240
0.424240
0.424240
0.424240
0.424240
0.423260
0.422290
0.420330
0.419350
0.417400
0.415440
0.415440
0.417400
0.422290
0.431090
0.444770
0.463340
0.484850
0.507330
0.526880
0.544480
0.559140
0.569890
0.581620
0.591400
0.599220
0.605080
0.608020
0.609970
0.610950
0.611930
0.609970
0.608020
0.606060
0.602150
0.597260
0.590420
0.580650
0.568910
0.557180
0.544480
0.530790
0.519060
0.509290
0.501470
0.494620
0.488760
0.484850
0.480940
0.478010
0.475070
0.472140
0.469210
0.467250
0.463340
0.460410
0.457480
0.454550
0.452590
0.449660
0.446730
0.441840
0.436950
0.433040
0.428150
0.424240
0.420330
0.416420
0.413490
0.411530
0.409580
0.408600
0.407620
0.407620
0.405670
0.404690
0.404690
0.403710
0.404690
0.405670
0.407620
0.408600
0.407620
0.407620
0.405670
0.403710
0.402740
0.400780
0.400780
0.399800
0.399800
0.400780
0.403710
0.408600
0.416420
0.426200
0.440860
0.459430
0.479960
0.500490
0.520040
0.538610
0.554250
0.565980
0.573800
0.580650
0.583580
0.584560
0.585530
0.585530
0.584560
0.583580
0.581620
0.578690
0.573800
0.568910
0.560120
0.550340
0.536660
0.522970
0.510260
0.497560
0.486800
0.478010
0.471160
0.466280
0.463340
0.460410
0.456500
0.453570
0.449660
0.447700
0.445750
0.441840
0.437930
0.434020
0.431090
0.427170
0.424240
0.422290
0.419350
0.415440
0.412510
0.410560
0.408600
0.406650
0.404690
0.401760
0.399800
0.396870
0.393940
0.391980
0.390030
0.390030
0.389050
0.391010
0.392960
0.393940
0.392960
0.392960
0.391980
0.390030
0.389050
0.388070
0.387100
0.386120
0.385140
0.383190
0.381230
0.379280
0.378300
0.377320
0.378300
0.381230
0.388070
0.397850
0.412510
0.430110
0.450640
0.471160
0.490710
0.507330
0.520040
0.533720
0.546430
0.557180
0.565000
0.569890
0.571850
0.571850
0.569890
0.567940
0.565000
0.561090
0.556210
0.550340
0.543500
0.534700
0.523950
0.512220
0.499510
0.488760
0.478980
0.471160
0.465300
0.460410
0.458460
0.457480
0.456500
0.456500
0.456500
0.456500
0.454550
0.452590
0.449660
0.446730
0.441840
0.436950
0.432060
0.427170
0.423260
0.419350
0.415440
0.411530
0.408600
0.407620
0.406650
0.406650
0.407620
0.407620
0.407620
0.408600
0.407620
0.407620
0.406650
0.405670
0.405670
0.404690
0.404690
0.405670
0.405670
0.403710
0.401760
0.399800
0.397850
0.395890
0.393940
0.391010
0.390030
0.389050
0.389050
0.390030
0.391980
0.395890
0.402740
0.412510
0.423260
0.435970
0.452590
0.471160
0.488760
0.507330
0.524930
0.539590
0.551320
0.560120
0.565000
0.565980
0.565980
0.564030
0.560120
0.555230
0.550340
0.543500
0.534700
0.523950
0.512220
0.501470
0.492670
0.485830
0.479960
0.475070
0.472140
0.470190
0.470190
0.469210
0.467250
0.465300
0.462370
0.459430
0.455520
0.451610
0.448680
0.445750
0.442820
0.440860
0.438910
0.436950
0.434020
0.432060
0.429130
0.427170
0.424240
0.422290
0.421310
0.419350
0.418380
0.417400
0.415440
0.413490
0.411530
0.410560
0.410560
0.410560
0.411530
0.411530
0.411530
0.410560
0.410560
0.410560
0.412510
0.414470
0.416420
0.418380
0.418380
0.418380
0.418380
0.418380
0.419350
0.419350
0.420330
0.422290
0.426200
0.435970
0.450640
0.469210
0.488760
0.510260
0.531770
0.552300
0.568910
0.582600
0.592380
0.598240
0.602150
0.604110
0.605080
0.606060
0.606060
0.606060
0.604110
0.600200
0.596290
0.590420
0.583580
0.574780
0.566960
0.558160
0.547410
0.536660
0.526880
0.518080
0.510260
0.503420
0.497560
0.494620
0.491690
0.487780
0.484850
0.481920
0.478010
0.474100
0.470190
0.466280
0.463340
0.459430
0.455520
0.451610
0.447700
0.443790
0.439880
0.436950
0.433040
0.429130
0.425220
0.422290
0.420330
0.419350
0.417400
0.416420
0.415440
0.415440
0.415440
0.415440
0.417400
0.418380
0.418380
0.418380
0.417400
0.417400
0.417400
0.418380
0.418380
0.417400
0.416420
0.414470
0.413490
0.412510
0.411530
0.412510
0.414470
0.417400
0.422290
0.431090
0.443790
0.460410
0.478010
0.496580
0.511240
0.524930
0.537630
0.550340
0.560120
0.566960
0.571850
0.575760
0.577710
0.578690
0.578690
0.578690
0.576740
0.573800
0.569890
0.564030
0.557180
0.548390
0.537630
0.525900
0.514170
0.503420
0.494620
0.487780
0.482890
0.479960
0.477030
0.475070
0.473120
0.471160
0.467250
0.463340
0.458460
0.453570
0.448680
0.443790
0.438910
0.434020
0.430110
0.426200
0.422290
0.419350
0.417400
0.415440
0.413490
0.411530
0.408600
0.406650
0.403710
0.401760
0.399800
0.398830
0.398830
0.399800
0.401760
0.403710
0.404690
0.403710
0.403710
0.402740
0.402740
0.401760
0.400780
0.400780
0.401760
0.400780
0.399800
0.397850
0.395890
0.393940
0.391980
0.391980
0.392960
0.395890
0.402740
0.410560
0.420330
0.433040
0.449660
0.468230
0.486800
0.504400
0.520040
0.533720
0.545450
0.554250
0.562070
0.566960
0.569890
0.570870
0.571850
0.571850
0.569890
0.566960
0.561090
0.554250
0.543500
0.531770
0.520040
0.507330
0.498530
0.492670
0.486800
0.481920
0.478010
0.476050
0.475070
0.473120
0.470190
0.468230
0.464320
0.460410
0.456500
0.452590
0.448680
0.443790
0.439880
0.435000
0.430110
0.426200
0.422290
0.419350
0.416420
0.414470
0.411530
0.409580
0.408600
0.406650
0.403710
0.402740
0.401760
0.400780
0.400780
0.400780
0.401760
0.400780
0.400780
0.400780
0.399800
0.398830
0.397850
0.397850
0.396870
0.396870
0.396870
0.395890
0.394920
0.393940
0.392960
0.391980
0.392960
0.395890
0.400780
0.409580
0.422290
0.438910
0.459430
0.481920
0.503420
0.524930
0.543500
0.559140
0.568910
0.575760
0.580650
0.583580
0.585530
0.586510
0.585530
0.583580
0.581620
0.578690
0.575760
0.571850
0.565980
0.560120
0.553270
0.543500
0.531770
0.520040
0.510260
0.502440
0.495600
0.491690
0.489740
0.486800
0.484850
0.483870
0.481920
0.480940
0.478010
0.474100
0.471160
0.467250
0.463340
0.460410
0.456500
0.451610
0.447700
0.442820
0.437930
0.434020
0.430110
0.425220
0.423260
0.421310
0.421310
0.420330
0.420330
0.419350
0.418380
0.418380
0.418380
0.418380
0.418380
0.419350
0.419350
0.419350
0.419350
0.419350
0.418380
0.417400
0.416420
0.414470
0.413490
0.411530
0.411530
0.410560
0.411530
0.413490
0.417400
0.424240
0.434020
0.447700
0.466280
0.487780
0.509290
0.527860
0.542520
0.557180
0.569890
0.579670
0.588470
0.595310
0.600200
0.602150
0.603130
0.604110
0.604110
0.603130
0.601170
0.598240
0.593350
0.586510
0.576740
0.565980
0.555230
0.542520
0.530790
0.520040
0.510260
0.503420
0.499510
0.495600
0.492670
0.489740
0.486800
0.483870
0.480940
0.478980
0.475070
0.472140
0.469210
0.465300
0.461390
0.458460
0.455520
0.451610
0.448680
0.444770
0.439880
0.435000
0.430110
0.426200
0.422290
0.419350
0.417400
0.417400
0.418380
0.419350
0.419350
0.420330
0.419350
0.418380
0.416420
0.413490
0.411530
0.409580
0.406650
0.404690
0.403710
0.403710
0.402740
0.402740
0.402740
0.402740
0.401760
0.400780
0.401760
0.402740
0.406650
0.413490
0.421310
0.432060
0.446730
0.465300
0.485830
0.505380
0.524930
0.541540
0.555230
0.565980
0.572830
0.575760
0.576740
0.576740
0.576740
0.576740
0.576740
0.576740
0.574780
0.571850
0.565000
0.555230
0.543500
0.530790
0.517110
0.506350
0.496580
0.486800
0.478010
0.472140
0.468230
0.466280
0.463340
0.461390
0.459430
0.456500
0.453570
0.449660
0.445750
0.441840
0.437930
0.434020
0.430110
0.426200
0.423260
0.419350
0.417400
0.414470
0.411530
0.409580
0.407620
0.405670
0.404690
0.403710
0.403710
0.402740
0.402740
0.402740
0.402740
0.401760
0.400780
0.399800
0.398830
0.398830
0.400780
0.402740
0.404690
0.405670
0.406650
0.406650
0.405670
0.403710
0.401760
0.398830
0.396870
0.395890
0.395890
0.397850
0.400780
0.405670
0.414470
0.427170
0.443790
0.464320
0.486800
0.510260
0.533720
0.553270
0.568910
0.582600
0.593350
0.600200
0.605080
0.607040
0.608020
0.606060
0.602150
0.597260
0.590420
0.582600
0.574780
0.565980
0.555230
0.544480
0.533720
0.524930
0.517110
0.509290
0.504400
0.502440
0.501470
0.500490
0.500490
0.499510
0.499510
0.499510
0.499510
0.499510
0.499510
0.499510
0.499510
0.499510
0.499510
0.499510
0.499510
0.499510
0.497560
0.494620
0.490710
0.486800
0.481920
0.478010
0.474100
0.471160
0.467250
0.463340
0.458460
0.455520
0.453570
0.452590
0.451610
0.450640
0.449660
0.446730
0.442820
0.439880
0.435000
0.431090
0.426200
0.423260
0.421310
0.419350
0.417400
0.414470
0.412510
0.409580
0.408600
0.408600
0.411530
0.415440
0.422290
0.433040
0.443790
0.456500
0.473120
0.489740
0.504400
0.518080
0.529810
0.538610
0.545450
0.550340
0.552300
0.552300
0.550340
0.548390
0.543500
0.537630
0.529810
0.519060
0.507330
0.494620
0.480940
0.467250
0.455520
0.444770
0.435000
0.428150
0.424240
0.420330
0.417400
0.415440
0.412510
0.410560
0.409580
0.408600
0.408600
0.408600
0.408600
0.407620
0.406650
0.405670
0.403710
0.401760
0.399800
0.398830
0.396870
0.393940
0.391980
0.389050
0.387100
0.384160
0.383190
0.383190
0.384160
0.384160
0.385140
0.385140
0.386120
0.386120
0.387100
0.387100
0.388070
0.388070
0.388070
0.389050
0.390030
0.390030
0.390030
0.390030
0.388070
0.386120
0.384160
0.384160
0.385140
0.388070
0.392960
0.399800
0.409580
0.424240
0.442820
0.465300
0.487780
0.511240
0.533720
0.553270
0.569890
0.582600
0.592380
0.598240
0.601170
0.603130
0.603130
0.604110
0.604110
0.603130
0.600200
0.595310
0.591400
0.585530
0.578690
0.570870
0.563050
0.553270
0.542520
0.530790
0.518080
0.507330
0.498530
0.491690
0.488760
0.486800
0.485830
0.483870
0.480940
0.478010
0.473120
0.469210
0.464320
0.459430
0.455520
0.452590
0.449660
0.445750
0.441840
0.437930
0.433040
0.429130
0.425220
0.422290
0.420330
0.419350
0.418380
0.417400
0.416420
0.416420
0.416420
0.416420
0.416420
0.416420
0.417400
0.416420
0.416420
0.415440
0.414470
0.414470
0.413490
0.413490
0.413490
0.413490
0.412510
0.411530
0.409580
0.408600
0.409580
0.412510
0.419350
0.427170
0.437930
0.451610
0.470190
0.490710
0.511240
0.531770
0.548390
0.561090
0.572830
0.583580
0.591400
0.598240
0.603130
0.608020
0.609970
0.610950
0.609970
0.607040
0.603130
0.599220
0.593350
0.586510
0.578690
0.570870
0.561090
0.550340
0.540570
0.530790
0.521990
0.514170
0.509290
0.505380
0.503420
0.503420
0.502440
0.499510
0.495600
0.491690
0.486800
0.482890
0.478010
0.473120
0.469210
0.465300
0.462370
0.459430
0.456500
0.452590
0.448680
0.444770
0.440860
0.435970
0.432060
0.429130
0.426200
0.424240
0.423260
0.423260
0.423260
0.423260
0.424240
0.424240
0.424240
0.424240
0.423260
0.422290
0.421310
0.421310
0.421310
0.422290
0.423260
0.424240
0.424240
0.422290
0.421310
0.420330
0.420330
0.422290
0.424240
0.429130
0.435970
0.445750
0.456500
0.473120
0.490710
0.510260
0.528840
0.545450
0.560120
0.571850
0.579670
0.585530
0.589440
0.592380
0.592380
0.592380
0.592380
0.591400
0.588470
0.584560
0.578690
0.571850
0.562070
0.551320
0.539590
0.527860
0.517110
0.508310
0.499510
0.492670
0.486800
0.480940
0.476050
0.473120
0.472140
0.470190
0.467250
0.464320
0.462370
0.459430
0.455520
0.452590
0.448680
0.444770
0.440860
0.435970
0.432060
0.429130
0.426200
0.424240
0.422290
0.422290
0.421310
0.420330
0.418380
0.415440
0.413490
0.412510
0.411530
0.411530
0.412510
0.412510
0.411530
0.410560
0.409580
0.408600
0.406650
0.405670
0.404690
0.404690
0.402740
0.400780
0.398830
0.396870
0.393940
0.391980
0.390030
0.389050
0.389050
0.391980
0.396870
0.405670
0.415440
0.428150
0.442820
0.460410
0.478010
0.495600
0.510260
0.522970
0.534700
0.544480
0.552300
0.558160
0.561090
0.563050
0.563050
0.563050
0.561090
0.558160
0.552300
0.544480
0.536660
0.524930
0.513200
0.500490
0.489740
0.479960
0.473120
0.467250
0.464320
0.462370
0.461390
0.459430
0.456500
0.454550
0.451610
0.447700
0.443790
0.438910
0.435000
0.431090
0.429130
0.426200
0.423260
0.421310
0.419350
0.417400
0.415440
0.413490
0.411530
0.408600
0.406650
0.403710
0.401760
0.400780
0.398830
0.398830
0.397850
0.397850
0.396870
0.395890
0.393940
0.391980
0.390030
0.389050
0.388070
0.388070
0.387100
0.386120
0.384160
0.382210
0.381230
0.378300
0.375370
0.372430
0.370480
0.368520
0.370480
0.374390
0.382210
0.393940
0.409580
0.424240
0.438910
0.455520
0.474100
0.491690
0.507330
0.521020
0.533720
0.545450
0.554250
0.561090
0.565000
0.565980
0.565000
0.561090
0.556210
0.551320
0.544480
0.537630
0.528840
0.519060
0.510260
0.502440
0.495600
0.489740
0.484850
0.480940
0.478010
0.476050
0.473120
0.472140
0.470190
0.467250
0.465300
0.463340
0.460410
0.458460
0.456500
0.454550
0.451610
0.449660
0.448680
0.447700
0.446730
0.444770
0.442820
0.440860
0.438910
0.436950
0.435000
0.433040
0.432060
0.430110
0.429130
0.428150
0.428150
0.428150
0.428150
0.428150
0.429130
0.429130
0.429130
0.428150
0.428150
0.428150
0.428150
0.428150
0.428150
0.428150
0.427170
0.425220
0.424240
0.424240
0.425220
0.428150
0.432060
0.438910
0.448680
0.462370
0.478980
0.498530
0.517110
0.535680
0.552300
0.565000
0.575760
0.583580
0.590420
0.593350
0.595310
0.595310
0.596290
0.596290
0.595310
0.593350
0.590420
0.584560
0.578690
0.570870
0.561090
0.552300
0.543500
0.533720
0.524930
0.518080
0.513200
0.508310
0.503420
0.500490
0.496580
0.492670
0.488760
0.485830
0.482890
0.479960
0.476050
0.472140
0.468230
0.465300
0.461390
0.458460
0.454550
0.451610
0.448680
0.445750
0.444770
0.442820
0.440860
0.439880
0.438910
0.437930
0.435970
0.434020
0.433040
0.432060
0.431090
0.431090
0.431090
0.431090
0.431090
0.431090
0.431090
0.430110
0.430110
0.429130
0.428150
0.427170
0.425220
0.423260
0.421310
0.420330
0.418380
0.417400
0.415440
0.414470
0.415440
0.421310
0.430110
0.442820
0.458460
0.477030
0.497560
0.514170
0.528840
0.542520
0.555230
0.565000
0.572830
0.576740
0.578690
0.579670
0.580650
0.580650
0.580650
0.578690
0.577710
0.573800
0.569890
0.563050
0.554250
0.543500
0.530790
0.518080
0.506350
0.495600
0.487780
0.481920
0.479960
0.478010
0.478010
0.477030
0.476050
0.473120
0.469210
0.465300
0.461390
0.457480
0.452590
0.449660
0.446730
0.444770
0.442820
0.440860
0.438910
0.436950
0.435000
0.433040
0.430110
0.428150
0.426200
0.424240
0.421310
0.420330
0.419350
0.418380
0.417400
0.417400
0.416420
0.415440
0.414470
0.413490
0.413490
0.414470
0.414470
0.414470
0.414470
0.414470
0.413490
0.412510
0.410560
0.408600
0.407620
0.405670
0.404690
0.405670
0.408600
0.413490
0.420330
0.428150
0.440860
0.456500
0.474100
0.492670
0.510260
0.526880
0.541540
0.553270
0.563050
0.570870
0.574780
0.577710
0.578690
0.578690
0.576740
0.572830
0.566960
0.558160
0.548390
0.537630
0.526880
0.517110
0.507330
0.499510
0.493650
0.488760
0.483870
0.478010
0.470190
0.465300
0.463340
0.460410
0.457480
0.453570
0.448680
0.443790
0.438910
0.435000
0.432060
0.429130
0.426200
0.423260
0.420330
0.418380
0.415440
0.414470
0.411530
0.409580
0.407620
0.405670
0.403710
0.400780
0.397850
0.395890
0.392960
0.391010
0.390030
0.389050
0.389050
0.389050
0.389050
0.389050
0.389050
0.388070
0.388070
0.387100
0.387100
0.387100
0.387100
0.388070
0.388070
0.389050
0.391010
0.392960
0.396870
0.402740
0.413490
0.429130
0.448680
0.471160
0.495600
0.521020
0.544480
0.567940
0.586510
0.601170
0.609970
0.615840
0.618770
0.620720
0.621700
0.620720
0.616810
0.612900
0.608020
0.604110
0.598240
0.591400
0.583580
0.574780
0.562070
0.548390
0.534700
0.523950
0.514170
0.507330
0.503420
0.501470
0.498530
0.494620
0.490710
0.486800
0.481920
0.478010
0.474100
0.470190
0.466280
0.462370
0.457480
0.451610
0.447700
0.442820
0.438910
0.435000
0.433040
0.431090
0.428150
0.426200
0.423260
0.420330
0.418380
0.415440
0.413490
0.411530
0.410560
0.411530
0.411530
0.411530
0.410560
0.409580
0.407620
0.407620
0.407620
0.407620
0.408600
0.409580
0.407620
0.405670
0.404690
0.402740
0.401760
0.401760
0.402740
0.404690
0.408600
0.416420
0.427170
0.442820
0.462370
0.484850
0.504400
0.523950
0.545450
0.568910
0.589440
0.607040
0.620720
0.628540
0.633430
0.635390
0.634410
0.630500
0.626590
0.621700
0.615840
0.610950
0.605080
0.599220
0.590420
0.578690
0.564030
0.548390
0.533720
0.521020
0.510260
0.503420
0.497560
0.492670
0.489740
0.484850
0.479960
0.474100
0.469210
0.465300
0.460410
0.454550
0.449660
0.443790
0.438910
0.435000
0.432060
0.429130
0.427170
0.425220
0.423260
0.421310
0.419350
0.417400
0.416420
0.415440
0.415440
0.415440
0.414470
0.414470
0.413490
0.411530
0.409580
0.408600
0.409580
0.409580
0.409580
0.409580
0.407620
0.407620
0.406650
0.405670
0.403710
0.402740
0.400780
0.399800
0.397850
0.395890
0.394920
0.395890
0.396870
0.399800
0.405670
0.414470
0.427170
0.443790
0.465300
0.487780
0.510260
0.530790
0.549360
0.566960
0.581620
0.592380
0.598240
0.600200
0.601170
0.602150
0.602150
0.602150
0.599220
0.594330
0.586510
0.575760
0.562070
0.545450
0.529810
0.518080
0.506350
0.495600
0.486800
0.478980
0.473120
0.469210
0.465300
0.461390
0.458460
0.455520
0.453570
0.450640
0.448680
0.446730
0.442820
0.439880
0.435970
0.432060
0.429130
0.427170
0.425220
0.421310
0.415440
0.411530
0.408600
0.406650
0.403710
0.400780
0.398830
0.397850
0.396870
0.394920
0.392960
0.391980
0.390030
0.389050
0.389050
0.389050
0.389050
0.388070
0.387100
0.386120
0.384160
0.384160
0.383190
0.381230
0.378300
0.376340
0.374390
0.372430
0.370480
0.369500
0.369500
0.373410
0.380250
0.391980
0.407620
0.427170
0.448680
0.470190
0.489740
0.505380
0.521990
0.535680
0.545450
0.553270
0.558160
0.561090
0.562070
0.561090
0.559140
0.557180
0.553270
0.547410
0.541540
0.532750
0.521990
0.510260
0.498530
0.487780
0.479960
0.472140
0.467250
0.463340
0.461390
0.460410
0.459430
0.456500
0.454550
0.450640
0.445750
0.441840
0.436950
0.433040
0.428150
0.424240
0.421310
0.419350
0.417400
0.416420
0.414470
0.411530
0.408600
0.406650
0.405670
0.405670
0.405670
0.405670
0.404690
0.403710
0.402740
0.402740
0.401760
0.401760
0.402740
0.404690
0.406650
0.409580
0.410560
0.409580
0.408600
0.405670
0.404690
0.404690
0.404690
0.405670
0.405670
0.404690
0.402740
0.400780
0.399800
0.400780
0.405670
0.415440
0.429130
0.445750
0.464320
0.488760
0.513200
0.538610
0.561090
0.580650
0.597260
0.609970
0.620720
0.626590
0.629520
0.631480
0.631480
0.629520
0.625610
0.621700
0.615840
0.610950
0.604110
0.596290
0.586510
0.574780
0.561090
0.546430
0.532750
0.521020
0.510260
0.501470
0.495600
0.492670
0.491690
0.490710
0.490710
0.488760
0.485830
0.480940
0.476050
0.471160
0.467250
0.462370
0.458460
0.453570
0.448680
0.442820
0.437930
0.432060
0.427170
0.422290
0.419350
0.419350
0.419350
0.419350
0.418380
0.416420
0.414470
0.412510
0.410560
0.409580
0.407620
0.407620
0.406650
0.405670
0.405670
0.405670
0.404690
0.402740
0.400780
0.397850
0.394920
0.392960
0.390030
0.387100
0.384160
0.382210
0.380250
0.381230
0.383190
0.388070
0.396870
0.409580
0.425220
0.444770
0.467250
0.490710
0.513200
0.533720
0.553270
0.568910
0.579670
0.588470
0.594330
0.597260
0.599220
0.599220
0.596290
0.593350
0.590420
0.584560
0.577710
0.570870
0.561090
0.549360
0.536660
0.522970
0.510260
0.499510
0.490710
0.483870
0.477030
0.473120
0.470190
0.468230
0.465300
0.462370
0.459430
0.456500
0.452590
0.447700
0.443790
0.439880
0.435000
0.429130
0.425220
0.421310
0.418380
0.416420
0.414470
0.411530
0.409580
0.406650
0.403710
0.400780
0.397850
0.395890
0.394920
0.393940
0.392960
0.393940
0.393940
0.392960
0.392960
0.394920
0.395890
0.396870
0.396870
0.395890
0.393940
0.393940
0.392960
0.392960
0.392960
0.391980
0.391010
0.388070
0.387100
0.386120
0.388070
0.390030
0.394920
0.404690
0.418380
0.433040
0.447700
0.468230
0.489740
0.510260
0.528840
0.544480
0.557180
0.565980
0.572830
0.577710
0.580650
0.581620
0.581620
0.580650
0.578690
0.573800
0.565980
0.556210
0.544480
0.529810
0.515150
0.503420
0.491690
0.481920
0.474100
0.468230
0.463340
0.460410
0.458460
0.458460
0.457480
0.456500
0.452590
0.448680
0.443790
0.438910
0.434020
0.429130
0.426200
0.423260
0.420330
0.417400
0.414470
0.412510
0.409580
0.406650
0.404690
0.402740
0.400780
0.399800
0.397850
0.395890
0.393940
0.391980
0.391010
0.389050
0.388070
0.386120
0.385140
0.383190
0.382210
0.383190
0.384160
0.384160
0.385140
0.387100
0.389050
0.389050
0.388070
0.386120
0.383190
0.382210
0.381230
0.384160
0.389050
0.398830
0.414470
0.434020
0.457480
0.480940
0.504400
0.526880
0.547410
0.564030
0.576740
0.585530
0.592380
0.596290
0.597260
0.598240
0.598240
0.597260
0.594330
0.590420
0.586510
0.581620
0.574780
0.565980
0.554250
0.542520
0.530790
0.520040
0.510260
0.503420
0.497560
0.492670
0.488760
0.487780
0.484850
0.481920
0.478980
0.476050
0.473120
0.470190
0.467250
0.463340
0.459430
0.455520
0.451610
0.446730
0.442820
0.438910
0.435970
0.433040
0.431090
0.428150
0.425220
0.422290
0.420330
0.418380
0.416420
0.414470
0.414470
0.413490
0.413490
0.412510
0.410560
0.409580
0.408600
0.408600
0.408600
0.408600
0.408600
0.410560
0.412510
0.415440
0.416420
0.417400
0.417400
0.416420
0.415440
0.414470
0.414470
0.417400
0.423260
0.432060
0.445750
0.464320
0.485830
0.508310
0.530790
0.551320
0.566960
0.577710
0.588470
0.597260
0.604110
0.608020
0.609970
0.610950
0.609970
0.607040
0.603130
0.598240
0.593350
0.586510
0.578690
0.569890
0.559140
0.547410
0.535680
0.522970
0.513200
0.505380
0.499510
0.494620
0.490710
0.489740
0.488760
0.486800
0.484850
0.480940
0.477030
0.474100
0.470190
0.466280
0.461390
0.456500
0.451610
0.447700
0.442820
0.438910
0.434020
0.430110
0.427170
0.425220
0.424240
0.422290
0.422290
0.421310
0.419350
0.419350
0.419350
0.418380
0.416420
0.414470
0.411530
0.409580
0.406650
0.404690
0.402740
0.401760
0.402740
0.402740
0.403710
0.403710
0.404690
0.404690
0.403710
0.402740
0.401760
0.400780
0.399800
0.401760
0.406650
0.414470
0.423260
0.434020
0.451610
0.474100
0.496580
0.518080
0.538610
0.557180
0.572830
0.583580
0.591400
0.595310
0.597260
0.597260
0.595310
0.594330
0.593350
0.591400
0.588470
0.583580
0.575760
0.565000
0.551320
0.536660
0.521990
0.511240
0.502440
0.493650
0.486800
0.481920
0.478010
0.476050
0.474100
0.471160
0.467250
0.462370
0.457480
0.452590
0.447700
0.442820
0.437930
0.433040
0.430110
0.426200
0.423260
0.420330
0.418380
0.415440
0.412510
0.409580
0.407620
0.406650
0.405670
0.405670
0.405670
0.404690
0.402740
0.400780
0.398830
0.396870
0.396870
0.396870
0.396870
0.397850
0.399800
0.400780
0.401760
0.402740
0.403710
0.402740
0.400780
0.399800
0.397850
0.394920
0.392960
0.391010
0.389050
0.387100
0.388070
0.391980
0.399800
0.412510
0.428150
0.447700
0.470190
0.492670
0.513200
0.532750
0.548390
0.559140
0.568910
0.574780
0.579670
0.582600
0.583580
0.582600
0.579670
0.575760
0.568910
0.561090
0.553270
0.544480
0.532750
0.520040
0.508310
0.497560
0.486800
0.478010
0.471160
0.465300
0.461390
0.459430
0.456500
0.454550
0.453570
0.451610
0.447700
0.442820
0.437930
0.433040
0.428150
0.424240
0.421310
0.418380
0.416420
0.414470
0.413490
0.412510
0.410560
0.408600
0.407620
0.405670
0.403710
0.400780
0.397850
0.395890
0.394920
0.392960
0.391980
0.391980
0.391980
0.391980
0.391980
0.393940
0.395890
0.398830
0.400780
0.400780
0.400780
0.399800
0.397850
0.396870
0.395890
0.393940
0.393940
0.394920
0.396870
0.402740
0.411530
0.424240
0.441840
0.464320
0.487780
0.509290
0.528840
0.550340
0.570870
0.588470
0.601170
0.609970
0.615840
0.618770
0.620720
0.621700
0.620720
0.616810
0.612900
0.608020
0.602150
0.594330
0.583580
0.571850
0.558160
0.545450
0.534700
0.524930
0.516130
0.509290
0.503420
0.500490
0.498530
0.497560
0.496580
0.494620
0.492670
0.488760
0.484850
0.479960
0.474100
0.469210
0.464320
0.459430
0.454550
0.449660
0.446730
0.442820
0.437930
0.433040
0.428150
0.425220
0.423260
0.421310
0.422290
0.421310
0.420330
0.419350
0.418380
0.417400
0.417400
0.416420
0.415440
0.416420
0.417400
0.417400
0.418380
0.419350
0.419350
0.420330
0.419350
0.418380
0.417400
0.416420
0.414470
0.411530
0.410560
0.411530
0.413490
0.416420
0.421310
0.429130
0.441840
0.460410
0.481920
0.505380
0.528840
0.551320
0.570870
0.588470
0.601170
0.609970
0.615840
0.617790
0.618770
0.617790
0.615840
0.612900
0.608020
0.603130
0.598240
0.591400
0.583580
0.573800
0.563050
0.552300
0.539590
0.524930
0.512220
0.500490
0.491690
0.486800
0.483870
0.481920
0.479960
0.476050
0.473120
0.470190
0.466280
0.462370
0.458460
0.453570
0.447700
0.441840
0.435970
0.431090
0.426200
0.421310
0.416420
0.413490
0.410560
0.408600
0.406650
0.404690
0.402740
0.401760
0.398830
0.397850
0.397850
0.396870
0.398830
0.399800
0.400780
0.400780
0.400780
0.400780
0.399800
0.399800
0.399800
0.400780
0.400780
0.400780
0.399800
0.397850
0.396870
0.394920
0.392960
0.391010
0.389050
0.390030
0.391980
0.396870
0.404690
0.417400
0.434020
0.455520
0.478980
0.499510
0.517110
0.535680
0.553270
0.567940
0.578690
0.586510
0.590420
0.593350
0.594330
0.594330
0.592380
0.590420
0.586510
0.579670
0.571850
0.561090
0.547410
0.533720
0.521020
0.508310
0.499510
0.491690
0.484850
0.478980
0.475070
0.473120
0.470190
0.467250
0.464320
0.460410
0.455520
0.450640
0.444770
0.439880
0.435000
0.430110
0.425220
0.420330
0.416420
0.412510
0.408600
0.405670
0.404690
0.404690
0.404690
0.404690
0.405670
0.403710
0.401760
0.399800
0.398830
0.395890
0.393940
0.393940
0.395890
0.395890
0.396870
0.397850
0.397850
0.397850
0.396870
0.395890
0.394920
0.393940
0.392960
0.391980
0.390030
0.388070
0.387100
0.384160
0.382210
0.382210
0.384160
0.387100
0.391010
0.398830
0.410560
0.426200
0.445750
0.468230
0.489740
0.511240
0.530790
0.547410
0.562070
0.572830
0.579670
0.583580
0.586510
0.587490
0.585530
0.580650
0.573800
0.565980
0.556210
0.544480
0.529810
0.516130
0.502440
0.491690
0.481920
0.474100
0.467250
0.460410
0.455520
0.453570
0.452590
0.450640
0.446730
0.443790
0.439880
0.436950
0.434020
0.432060
0.429130
0.426200
0.423260
0.420330
0.417400
0.414470
0.412510
0.411530
0.409580
0.408600
0.406650
0.405670
0.403710
0.401760
0.400780
0.401760
0.402740
0.402740
0.403710
0.404690
0.405670
0.405670
0.405670
0.406650
0.406650
0.407620
0.408600
0.407620
0.407620
0.406650
0.405670
0.405670
0.404690
0.403710
0.402740
0.402740
0.403710
0.406650
0.408600
0.413490
0.422290
0.435970
0.454550
0.477030
0.501470
0.526880
0.552300
0.572830
0.587490
0.602150
0.612900
0.621700
0.628540
0.632450
0.634410
0.635390
0.634410
0.631480
0.626590
0.620720
0.611930
0.603130
0.592380
0.579670
0.565980
0.553270
0.540570
0.528840
0.519060
0.510260
0.502440
0.493650
0.485830
0.481920
0.479960
0.478980
0.478980
0.478010
0.476050
0.473120
0.470190
0.465300
0.460410
0.454550
0.449660
0.445750
0.439880
0.435000
0.432060
0.428150
0.424240
0.419350
0.414470
0.410560
0.407620
0.405670
0.404690
0.404690
0.404690
0.404690
0.403710
0.401760
0.401760
0.400780
0.401760
0.403710
0.403710
0.404690
0.404690
0.404690
0.405670
0.405670
0.406650
0.406650
0.405670
0.403710
0.401760
0.398830
0.397850
0.398830
0.400780
0.407620
0.416420
0.428150
0.444770
0.466280
0.489740
0.512220
0.532750
0.552300
0.567940
0.578690
0.587490
0.593350
0.595310
0.595310
0.596290
0.596290
0.594330
0.591400
0.587490
0.582600
0.575760
0.566960
0.556210
0.543500
0.530790
0.518080
0.508310
0.500490
0.493650
0.486800
0.480940
0.477030
0.475070
0.473120
0.470190
0.468230
0.465300
0.462370
0.458460
0.454550
0.450640
0.445750
0.439880
0.435000
0.429130
0.423260
0.417400
0.412510
0.408600
0.405670
0.403710
0.402740
0.400780
0.399800
0.398830
0.397850
0.397850
0.397850
0.397850
0.398830
0.398830
0.398830
0.399800
0.400780
0.399800
0.397850
0.396870
0.395890
0.395890
0.396870
0.397850
0.398830
0.398830
0.398830
0.397850
0.395890
0.394920
0.393940
0.394920
0.396870
0.400780
0.406650
0.416420
0.431090
0.451610
0.476050
0.500490
0.520040
0.536660
0.552300
0.565980
0.575760
0.581620
0.584560
0.585530
0.584560
0.582600
0.579670
0.576740
0.571850
0.565980
0.558160
0.547410
0.534700
0.521990
0.508310
0.496580
0.484850
0.476050
0.468230
0.462370
0.458460
0.457480
0.456500
0.455520
0.454550
0.451610
0.447700
0.442820
0.437930
0.433040
0.428150
0.423260
0.419350
0.414470
0.411530
0.407620
0.404690
0.401760
0.398830
0.395890
0.393940
0.391980
0.391980
0.391980
0.392960
0.392960
0.392960
0.393940
0.394920
0.393940
0.392960
0.392960
0.391980
0.391980
0.391980
0.391980
0.391980
0.391980
0.392960
0.392960
0.392960
0.391980
0.390030
0.387100
0.384160
0.382210
0.380250
0.379280
0.381230
0.383190
0.389050
0.396870
0.407620
0.422290
0.442820
0.464320
0.486800
0.507330
0.526880
0.544480
0.557180
0.565980
0.571850
0.575760
0.576740
0.575760
0.573800
0.570870
0.567940
0.562070
0.554250
0.542520
0.529810
0.516130
0.502440
0.490710
0.479960
0.470190
0.461390
0.454550
0.450640
0.448680
0.447700
0.446730
0.443790
0.438910
0.434020
0.429130
0.424240
0.419350
0.415440
0.411530
0.408600
0.405670
0.403710
0.402740
0.400780
0.397850
0.395890
0.394920
0.393940
0.392960
0.393940
0.393940
0.393940
0.393940
0.393940
0.393940
0.393940
0.393940
0.393940
0.393940
0.393940
0.393940
0.394920
0.396870
0.397850
0.398830
0.399800
0.399800
0.398830
0.396870
0.394920
0.391980
0.389050
0.388070
0.388070
0.390030
0.392960
0.397850
0.406650
0.420330
0.440860
0.466280
0.493650
0.522970
0.551320
0.576740
0.595310
0.609970
0.622680
0.631480
0.638320
0.641250
0.642230
0.643210
0.642230
0.638320
0.633430
0.627570
0.620720
0.612900
0.605080
0.594330
0.581620
0.565980
0.551320
0.536660
0.524930
0.514170
0.506350
0.500490
0.497560
0.496580
0.495600
0.494620
0.491690
0.486800
0.481920
0.477030
0.473120
0.469210
0.465300
0.463340
0.459430
0.454550
0.449660
0.444770
0.438910
0.433040
0.427170
0.422290
0.419350
0.416420
0.412510
0.409580
0.407620
0.406650
0.406650
0.406650
0.406650
0.406650
0.406650
0.406650
0.406650
0.405670
0.406650
0.405670
0.405670
0.405670
0.404690
0.404690
0.403710
0.403710
0.402740
0.401760
0.400780
0.398830
0.398830
0.400780
0.402740
0.408600
0.418380
0.430110
0.446730
0.468230
0.492670
0.517110
0.540570
0.563050
0.582600
0.598240
0.609970
0.617790
0.620720
0.621700
0.620720
0.618770
0.615840
0.612900
0.609970
0.606060
0.600200
0.591400
0.579670
0.565980
0.550340
0.535680
0.522970
0.514170
0.506350
0.498530
0.493650
0.490710
0.489740
0.488760
0.488760
0.488760
0.486800
0.482890
0.479960
0.476050
0.471160
0.465300
0.458460
0.452590
0.445750
0.439880
0.433040
0.426200
0.420330
0.414470
0.410560
0.408600
0.407620
0.406650
0.405670
0.403710
0.401760
0.398830
0.395890
0.392960
0.391010
0.390030
0.389050
0.389050
0.389050
0.389050
0.391010
0.392960
0.395890
0.397850
0.397850
0.397850
0.396870
0.394920
0.391980
0.389050
0.387100
0.385140
0.383190
0.383190
0.385140
0.391010
0.401760
0.416420
0.435970
0.459430
0.484850
0.508310
0.527860
0.545450
0.563050
0.578690
0.591400
0.600200
0.604110
0.606060
0.607040
0.607040
0.605080
0.603130
0.598240
0.592380
0.583580
0.570870
0.556210
0.540570
0.525900
0.512220
0.499510
0.488760
0.479960
0.474100
0.469210
0.467250
0.466280
0.465300
0.462370
0.457480
0.451610
0.445750
0.439880
0.435970
0.432060
0.428150
0.424240
0.418380
0.413490
0.409580
0.405670
0.402740
0.398830
0.395890
0.392960
0.389050
0.386120
0.383190
0.382210
0.382210
0.382210
0.380250
0.379280
0.379280
0.379280
0.381230
0.383190
0.384160
0.385140
0.387100
0.389050
0.390030
0.390030
0.390030
0.390030
0.388070
0.385140
0.382210
0.379280
0.376340
0.373410
0.371460
0.372430
0.374390
0.377320
0.382210
0.389050
0.400780
0.417400
0.437930
0.460410
0.482890
0.505380
0.525900
0.543500
0.559140
0.569890
0.576740
0.580650
0.581620
0.580650
0.578690
0.575760
0.569890
0.563050
0.553270
0.540570
0.526880
0.514170
0.501470
0.491690
0.482890
0.475070
0.468230
0.461390
0.455520
0.451610
0.448680
0.446730
0.443790
0.439880
0.435970
0.431090
0.427170
0.422290
0.417400
0.411530
0.405670
0.401760
0.398830
0.394920
0.391980
0.389050
0.386120
0.382210
0.380250
0.378300
0.376340
0.375370
0.374390
0.373410
0.373410
0.373410
0.373410
0.375370
0.375370
0.376340
0.377320
0.380250
0.381230
0.382210
0.382210
0.382210
0.381230
0.380250
0.380250
0.380250
0.379280
0.378300
0.377320
0.376340
0.375370
0.376340
0.377320
0.382210
0.389050
0.400780
0.418380
0.441840
0.467250
0.494620
0.521020
0.542520
0.560120
0.575760
0.587490
0.596290
0.601170
0.604110
0.605080
0.606060
0.605080
0.603130
0.600200
0.595310
0.590420
0.583580
0.574780
0.564030
0.552300
0.539590
0.527860
0.517110
0.507330
0.499510
0.494620
0.491690
0.490710
0.488760
0.486800
0.482890
0.478980
0.475070
0.470190
0.465300
0.462370
0.458460
0.453570
0.448680
0.443790
0.439880
0.435000
0.431090
0.428150
0.425220
0.422290
0.418380
0.413490
0.407620
0.403710
0.400780
0.399800
0.399800
0.399800
0.399800
0.399800
0.398830
0.396870
0.393940
0.391980
0.389050
0.388070
0.389050
0.390030
0.392960
0.394920
0.395890
0.396870
0.397850
0.398830
0.398830
0.396870
0.394920
0.393940
0.394920
0.395890
0.399800
0.403710
0.411530
0.425220
0.443790
0.467250
0.492670
0.519060
0.543500
0.564030
0.579670
0.591400
0.599220
0.603130
0.604110
0.603130
0.603130
0.602150
0.600200
0.596290
0.592380
0.586510
0.578690
0.568910
0.556210
0.543500
0.532750
0.521020
0.509290
0.500490
0.493650
0.487780
0.485830
0.483870
0.482890
0.480940
0.478010
0.475070
0.471160
0.467250
0.464320
0.459430
0.454550
0.448680
0.443790
0.439880
0.435000
0.431090
0.427170
0.423260
0.420330
0.416420
0.412510
0.407620
0.402740
0.399800
0.396870
0.394920
0.393940
0.392960
0.391010
0.389050
0.387100
0.386120
0.386120
0.387100
0.388070
0.388070
0.389050
0.390030
0.391010
0.393940
0.395890
0.398830
0.402740
0.404690
0.405670
0.406650
0.405670
0.403710
0.401760
0.398830
0.396870
0.399800
0.406650
0.418380
0.434020
0.455520
0.480940
0.504400
0.524930
0.545450
0.565000
0.580650
0.593350
0.601170
0.605080
0.607040
0.607040
0.605080
0.603130
0.600200
0.597260
0.592380
0.584560
0.575760
0.564030
0.549360
0.534700
0.519060
0.507330
0.497560
0.489740
0.481920
0.477030
0.474100
0.473120
0.472140
0.472140
0.471160
0.469210
0.465300
0.460410
0.454550
0.448680
0.442820
0.437930
0.434020
0.429130
0.425220
0.421310
0.416420
0.412510
0.408600
0.405670
0.402740
0.399800
0.397850
0.395890
0.394920
0.394920
0.393940
0.392960
0.393940
0.393940
0.394920
0.394920
0.395890
0.395890
0.395890
0.395890
0.395890
0.397850
0.397850
0.398830
0.399800
0.399800
0.397850
0.394920
0.391980
0.389050
0.386120
0.383190
0.383190
0.384160
0.389050
0.395890
0.405670
0.420330
0.439880
0.462370
0.485830
0.509290
0.529810
0.548390
0.563050
0.573800
0.581620
0.589440
0.594330
0.595310
0.594330
0.592380
0.589440
0.583580
0.575760
0.566960
0.556210
0.543500
0.531770
0.518080
0.504400
0.493650
0.483870
0.476050
0.471160
0.468230
0.466280
0.463340
0.459430
0.454550
0.450640
0.447700
0.443790
0.440860
0.437930
0.434020
0.429130
0.424240
0.419350
0.413490
0.409580
0.405670
0.403710
0.400780
0.398830
0.395890
0.391980
0.389050
0.387100
0.385140
0.384160
0.382210
0.381230
0.379280
0.379280
0.380250
0.381230
0.382210
0.384160
0.387100
0.389050
0.390030
0.390030
0.391010
0.391010
0.391010
0.391980
0.393940
0.394920
0.394920
0.393940
0.392960
0.392960
0.393940
0.397850
0.402740
0.412510
0.427170
0.446730
0.471160
0.493650
0.513200
0.533720
0.555230
0.574780
0.589440
0.601170
0.608990
0.613880
0.617790
0.619750
0.619750
0.616810
0.613880
0.609970
0.607040
0.602150
0.594330
0.585530
0.573800
0.560120
0.546430
0.534700
0.523950
0.514170
0.507330
0.504400
0.502440
0.500490
0.497560
0.494620
0.490710
0.486800
0.482890
0.478980
0.475070
0.472140
0.470190
0.468230
0.465300
0.462370
0.458460
0.454550
0.450640
0.444770
0.438910
0.433040
0.427170
0.422290
0.418380
0.415440
0.412510
0.411530
0.410560
0.410560
0.409580
0.408600
0.407620
0.406650
0.405670
0.404690
0.404690
0.405670
0.405670
0.405670
0.405670
0.404690
0.404690
0.403710
0.403710
0.402740
0.401760
0.401760
0.401760
0.403710
0.405670
0.410560
0.422290
0.439880
0.463340
0.488760
0.516130
0.542520
0.566960
0.587490
0.603130
0.613880
0.619750
0.622680
0.623660
0.624630
0.624630
0.622680
0.618770
0.613880
0.608990
0.601170
0.591400
0.578690
0.565980
0.554250
0.542520
0.530790
0.521020
0.513200
0.506350
0.502440
0.500490
0.499510
0.497560
0.495600
0.492670
0.489740
0.486800
0.483870
0.479960
0.476050
0.473120
0.469210
0.463340
0.458460
0.452590
0.446730
0.441840
0.436950
0.434020
0.432060
0.429130
0.425220
0.420330
0.415440
0.410560
0.407620
0.405670
0.403710
0.404690
0.404690
0.404690
0.404690
0.403710
0.402740
0.401760
0.400780
0.399800
0.398830
0.398830
0.397850
0.398830
0.399800
0.399800
0.401760
0.402740
0.403710
0.403710
0.401760
0.398830
0.397850
0.398830
0.401760
0.407620
0.419350
0.435970
0.453570
0.472140
0.494620
0.517110
0.539590
0.559140
0.575760
0.589440
0.599220
0.605080
0.608020
0.607040
0.605080
0.602150
0.599220
0.596290
0.593350
0.587490
0.579670
0.567940
0.554250
0.538610
0.523950
0.512220
0.503420
0.496580
0.492670
0.489740
0.488760
0.487780
0.484850
0.482890
0.480940
0.478010
0.474100
0.470190
0.466280
0.463340
0.459430
0.455520
0.450640
0.445750
0.439880
0.434020
0.427170
0.422290
0.416420
0.412510
0.409580
0.406650
0.405670
0.405670
0.403710
0.401760
0.399800
0.397850
0.396870
0.397850
0.397850
0.398830
0.399800
0.400780
0.401760
0.403710
0.403710
0.404690
0.404690
0.404690
0.403710
0.401760
0.398830
0.395890
0.392960
0.390030
0.386120
0.384160
0.383190
0.383190
0.385140
0.389050
0.395890
0.405670
0.420330
0.438910
0.461390
0.485830
0.509290
0.529810
0.547410
0.563050
0.575760
0.584560
0.588470
0.591400
0.592380
0.590420
0.588470
0.585530
0.581620
0.575760
0.568910
0.560120
0.548390
0.533720
0.519060
0.507330
0.497560
0.489740
0.481920
0.477030
0.474100
0.473120
0.472140
0.472140
0.471160
0.470190
0.466280
0.462370
0.457480
0.452590
0.446730
0.441840
0.436950
0.432060
0.428150
0.426200
0.424240
0.420330
0.416420
0.412510
0.407620
0.403710
0.399800
0.397850
0.395890
0.395890
0.397850
0.399800
0.400780
0.400780
0.400780
0.398830
0.395890
0.393940
0.391980
0.391010
0.391980
0.393940
0.395890
0.396870
0.397850
0.396870
0.394920
0.391980
0.389050
0.386120
0.383190
0.380250
0.380250
0.381230
0.386120
0.393940
0.402740
0.415440
0.433040
0.455520
0.478980
0.502440
0.524930
0.540570
0.550340
0.559140
0.564030
0.568910
0.571850
0.572830
0.573800
0.572830
0.571850
0.568910
0.563050
0.555230
0.543500
0.531770
0.521020
0.511240
0.503420
0.497560
0.491690
0.486800
0.483870
0.481920
0.481920
0.480940
0.480940
0.480940
0.478980
0.476050
0.473120
0.469210
0.464320
0.459430
0.454550
0.448680
0.443790
0.441840
0.440860
0.438910
0.436950
0.434020
0.430110
0.426200
0.422290
0.418380
0.416420
0.414470
0.412510
0.411530
0.412510
0.412510
0.413490
0.413490
0.413490
0.413490
0.413490
0.412510
0.411530
0.411530
0.411530
0.412510
0.413490
0.413490
0.413490
0.412510
0.411530
0.408600
0.406650
0.404690
0.402740
0.400780
0.400780
0.404690
0.411530
0.423260
0.438910
0.459430
0.483870
0.508310
0.529810
0.548390
0.564030
0.579670
0.591400
0.600200
0.607040
0.610950
0.612900
0.613880
0.614860
0.612900
0.609970
0.605080
0.600200
0.593350
0.585530
0.576740
0.564030
0.551320
0.540570
0.529810
0.521020
0.512220
0.506350
0.502440
0.500490
0.499510
0.498530
0.498530
0.496580
0.494620
0.493650
0.492670
0.491690
0.487780
0.484850
0.479960
0.474100
0.469210
0.465300
0.460410
0.456500
0.452590
0.447700
0.442820
0.438910
0.434020
0.430110
0.426200
0.422290
0.419350
0.418380
0.416420
0.415440
0.414470
0.414470
0.413490
0.413490
0.413490
0.413490
0.412510
0.411530
0.411530
0.411530
0.411530
0.412510
0.413490
0.413490
0.412510
0.411530
0.408600
0.406650
0.404690
0.405670
0.408600
0.412510
0.419350
0.432060
0.449660
0.472140
0.495600
0.518080
0.538610
0.557180
0.571850
0.583580
0.590420
0.594330
0.595310
0.594330
0.594330
0.594330
0.594330
0.594330
0.592380
0.589440
0.585530
0.578690
0.570870
0.560120
0.549360
0.540570
0.531770
0.522970
0.515150
0.508310
0.501470
0.495600
0.490710
0.486800
0.484850
0.481920
0.478980
0.476050
0.472140
0.468230
0.465300
0.462370
0.459430
0.456500
0.454550
0.451610
0.448680
0.443790
0.438910
0.435000
0.432060
0.427170
0.421310
0.417400
0.415440
0.413490
0.411530
0.409580
0.408600
0.409580
0.410560
0.412510
0.412510
0.413490
0.413490
0.413490
0.412510
0.411530
0.409580
0.408600
0.408600
0.408600
0.408600
0.409580
0.408600
0.408600
0.407620
0.405670
0.404690
0.405670
0.408600
0.413490
0.421310
0.434020
0.449660
0.469210
0.487780
0.503420
0.521990
0.540570
0.558160
0.572830
0.582600
0.588470
0.591400
0.592380
0.591400
0.589440
0.586510
0.584560
0.578690
0.570870
0.561090
0.545450
0.529810
0.518080
0.507330
0.497560
0.489740
0.482890
0.477030
0.474100
0.472140
0.471160
0.470190
0.469210
0.467250
0.466280
0.463340
0.460410
0.456500
0.453570
0.450640
0.447700
0.443790
0.440860
0.437930
0.435000
0.433040
0.429130
0.425220
0.421310
0.416420
0.413490
0.409580
0.406650
0.405670
0.404690
0.402740
0.399800
0.397850
0.396870
0.397850
0.398830
0.401760
0.403710
0.404690
0.404690
0.404690
0.404690
0.404690
0.404690
0.404690
0.403710
0.401760
0.399800
0.397850
0.394920
0.391980
0.390030
0.389050
0.391010
0.393940
0.399800
0.409580
0.425220
0.444770
0.467250
0.489740
0.512220
0.531770
0.548390
0.562070
0.572830
0.580650
0.584560
0.586510
0.587490
0.587490
0.584560
0.579670
0.572830
0.565000
0.555230
0.543500
0.529810
0.517110
0.506350
0.496580
0.487780
0.479960
0.474100
0.467250
0.462370
0.459430
0.455520
0.453570
0.450640
0.447700
0.444770
0.442820
0.439880
0.435970
0.431090
0.427170
0.422290
0.418380
0.414470
0.412510
0.410560
0.407620
0.406650
0.404690
0.403710
0.401760
0.399800
0.397850
0.396870
0.396870
0.396870
0.396870
0.396870
0.397850
0.397850
0.398830
0.400780
0.401760
0.402740
0.403710
0.403710
0.403710
0.404690
0.404690
0.404690
0.404690
0.403710
0.404690
0.404690
0.404690
0.404690
0.404690
0.404690
0.404690
0.407620
0.413490
0.425220
0.441840
0.462370
0.485830
0.507330
0.526880
0.546430
0.564030
0.578690
0.589440
0.597260
0.602150
0.604110
0.605080
0.604110
0.602150
0.600200
0.595310
0.591400
0.587490
0.582600
0.575760
0.567940
0.556210
0.543500
0.530790
0.519060
0.509290
0.501470
0.495600
0.491690
0.489740
0.488760
0.488760
0.487780
0.487780
0.486800
0.483870
0.481920
0.478980
0.476050
0.472140
0.469210
0.465300
0.461390
0.457480
0.453570
0.447700
0.442820
0.439880
0.435970
0.431090
0.426200
0.422290
0.418380
0.415440
0.412510
0.409580
0.407620
0.406650
0.405670
0.405670
0.405670
0.405670
0.405670
0.404690
0.403710
0.403710
0.402740
0.402740
0.402740
0.403710
0.403710
0.403710
0.402740
0.401760
0.400780
0.401760
0.403710
0.405670
0.409580
0.420330
0.433040
0.444770
0.465300
0.492670
0.518080
0.539590
0.559140
0.573800
0.582600
0.586510
0.589440
0.590420
0.590420
0.590420
0.589440
0.588470
0.586510
0.582600
0.577710
0.570870
0.562070
0.552300
0.543500
0.533720
0.520040
0.510260
0.502440
0.496580
0.494620
0.492670
0.489740
0.488760
0.486800
0.484850
0.482890
0.479960
0.477030
0.473120
0.470190
0.467250
0.464320
0.461390
0.459430
0.456500
0.453570
0.450640
0.446730
0.442820
0.438910
0.434020
0.429130
0.424240
0.420330
0.418380
0.415440
0.413490
0.412510
0.411530
0.410560
0.409580
0.408600
0.407620
0.405670
0.403710
0.400780
0.397850
0.394920
0.391980
0.390030
0.388070
0.387100
0.387100
0.387100
0.388070
0.389050
0.390030
0.391010
0.391010
0.391980
0.391980
0.391010
0.390030
0.388070
0.386120
0.385140
0.383190
0.382210
0.383190
0.384160
0.386120
0.387100
0.386120
0.385140
0.384160
0.382210
0.380250
0.380250
0.381230
0.381230
0.382210
0.384160
0.385140
0.386120
0.386120
0.386120
0.386120
0.385140
0.385140
0.385140
0.385140
0.385140
0.385140
0.385140
0.387100
0.390030
0.391980
0.393940
0.394920
0.396870
0.396870
0.397850
0.398830
0.399800
0.400780
0.400780
0.400780
0.400780
0.400780
0.401760
0.404690
0.406650
0.407620
0.407620
0.407620
0.407620
0.407620
0.406650
0.407620
0.407620
0.407620
0.406650
0.405670
0.405670
0.405670
0.405670
0.406650
0.407620
0.407620
0.407620
0.407620
0.407620
0.407620
0.407620
0.407620
0.407620
0.407620
0.407620
0.407620
0.408600
0.412510
0.419350
0.433040
0.452590
0.478980
0.508310
0.540570
0.570870
0.598240
0.621700
0.640270
0.652980
0.660800
0.667640
0.672530
0.674490
0.676440
0.676440
0.676440
0.673510
0.668620
0.660800
0.651030
0.640270
0.630500
0.618770
0.607040
0.596290
0.585530
0.575760
0.566960
0.558160
0.552300
0.547410
0.543500
0.539590
0.534700
0.529810
0.523950
0.519060
0.513200
0.506350
0.500490
0.496580
0.492670
0.487780
0.483870
0.479960
0.477030
0.473120
0.469210
0.463340
0.457480
0.452590
0.447700
0.445750
0.442820
0.439880
0.435970
0.431090
0.425220
0.420330
0.415440
0.411530
0.409580
0.408600
0.408600
0.408600
0.408600
0.407620
0.406650
0.404690
0.403710
0.402740
0.402740
0.401760
0.400780
0.400780
0.399800
0.399800
0.398830
0.397850
0.399800
0.401760
0.403710
0.407620
0.412510
0.419350
0.431090
0.446730
0.466280
0.486800
0.507330
0.527860
0.547410
0.564030
0.577710
0.587490
0.593350
0.595310
0.596290
0.596290
0.597260
0.595310
0.592380
0.589440
0.586510
0.580650
0.573800
0.564030
0.551320
0.539590
0.528840
0.519060
0.509290
0.501470
0.495600
0.491690
0.489740
0.488760
0.487780
0.487780
0.486800
0.483870
0.482890
0.478010
0.471160
0.467250
0.463340
0.459430
0.456500
0.453570
0.450640
0.447700
0.444770
0.442820
0.440860
0.438910
0.436950
0.436950
0.435970
0.434020
0.432060
0.430110
0.428150
0.426200
0.424240
0.423260
0.421310
0.419350
0.418380
0.415440
0.413490
0.411530
0.410560
0.410560
0.410560
0.410560
0.410560
0.410560
0.409580
0.408600
0.408600
0.408600
0.409580
0.410560
0.411530
0.414470
0.419350
0.428150
0.438910
0.453570
0.469210
0.483870
0.495600
0.509290
0.523950
0.535680
0.544480
0.550340
0.553270
0.555230
0.555230
0.554250
0.551320
0.548390
0.545450
0.543500
0.540570
0.537630
0.532750
0.526880
0.518080
0.509290
0.500490
0.492670
0.485830
0.480940
0.478980
0.477030
0.475070
0.474100
0.473120
0.473120
0.472140
0.471160
0.469210
0.468230
0.466280
0.464320
0.460410
0.457480
0.454550
0.450640
0.447700
0.444770
0.442820
0.439880
0.437930
0.435000
0.432060
0.429130
0.427170
0.425220
0.423260
0.422290
0.421310
0.420330
0.418380
0.416420
0.413490
0.411530
0.409580
0.408600
0.408600
0.409580
0.410560
0.410560
0.410560
0.411530
0.411530
0.409580
0.408600
0.407620
0.405670
0.404690
0.403710
0.404690
0.405670
0.407620
0.411530
0.417400
0.426200
0.437930
0.452590
0.467250
0.482890
0.496580
0.509290
0.519060
0.527860
0.533720
0.537630
0.540570
0.542520
0.544480
0.544480
0.543500
0.542520
0.539590
0.535680
0.529810
0.521020
0.512220
0.504400
0.496580
0.489740
0.482890
0.478010
0.473120
0.471160
0.469210
0.468230
0.466280
0.465300
0.464320
0.463340
0.461390
0.459430
0.458460
0.455520
0.452590
0.449660
0.445750
0.441840
0.437930
0.434020
0.430110
0.428150
0.426200
0.425220
0.423260
0.422290
0.420330
0.417400
0.415440
0.413490
0.412510
0.411530
0.410560
0.410560
0.410560
0.410560
0.410560
0.411530
0.411530
0.411530
0.411530
0.411530
0.411530
0.410560
0.408600
0.408600
0.408600
0.409580
0.410560
0.410560
0.410560
0.410560
0.410560
0.410560
0.411530
0.414470
0.418380
0.426200
0.435000
0.445750
0.459430
0.474100
0.488760
0.503420
0.517110
0.527860
0.535680
0.541540
0.543500
0.544480
0.543500
0.542520
0.540570
0.538610
0.536660
0.532750
0.527860
0.521990
0.515150
0.508310
0.499510
0.491690
0.485830
0.480940
0.477030
0.473120
0.470190
0.469210
0.469210
0.468230
0.466280
0.464320
0.461390
0.458460
0.454550
0.450640
0.448680
0.445750
0.441840
0.437930
0.435000
0.432060
0.429130
0.427170
0.424240
0.420330
0.416420
0.413490
0.410560
0.407620
0.404690
0.401760
0.400780
0.399800
0.396870
0.395890
0.394920
0.393940
0.393940
0.394920
0.394920
0.394920
0.395890
0.395890
0.396870
0.395890
0.393940
0.391010
0.389050
0.386120
0.383190
0.379280
0.377320
0.377320
0.378300
0.380250
0.385140
0.391010
0.400780
0.415440
0.435000
0.458460
0.481920
0.504400
0.526880
0.547410
0.562070
0.572830
0.580650
0.586510
0.590420
0.592380
0.593350
0.592380
0.590420
0.588470
0.584560
0.577710
0.569890
0.562070
0.551320
0.540570
0.529810
0.519060
0.510260
0.502440
0.495600
0.489740
0.486800
0.484850
0.483870
0.482890
0.479960
0.478010
0.477030
0.475070
0.472140
0.468230
0.464320
0.459430
0.455520
0.452590
0.449660
0.447700
0.445750
0.443790
0.440860
0.437930
0.435000
0.432060
0.428150
0.423260
0.420330
0.415440
0.411530
0.407620
0.405670
0.403710
0.403710
0.402740
0.401760
0.402740
0.401760
0.400780
0.400780
0.400780
0.401760
0.402740
0.402740
0.402740
0.401760
0.400780
0.399800
0.397850
0.397850
0.399800
0.400780
0.403710
0.409580
0.419350
0.435000
0.451610
0.468230
0.490710
0.513200
0.535680
0.557180
0.575760
0.589440
0.599220
0.606060
0.608990
0.610950
0.610950
0.609970
0.608020
0.604110
0.599220
0.596290
0.591400
0.585530
0.578690
0.567940
0.555230
0.541540
0.528840
0.519060
0.510260
0.503420
0.497560
0.493650
0.490710
0.489740
0.488760
0.486800
0.484850
0.483870
0.482890
0.479960
0.478010
0.475070
0.471160
0.467250
0.462370
0.457480
0.451610
0.446730
0.441840
0.437930
0.434020
0.430110
0.429130
0.427170
0.425220
0.422290
0.419350
0.416420
0.413490
0.410560
0.407620
0.404690
0.403710
0.402740
0.401760
0.402740
0.402740
0.402740
0.402740
0.401760
0.401760
0.401760
0.399800
0.397850
0.394920
0.391980
0.390030
0.388070
0.389050
0.390030
0.392960
0.396870
0.404690
0.416420
0.434020
0.455520
0.478010
0.501470
0.523950
0.541540
0.556210
0.569890
0.579670
0.586510
0.590420
0.592380
0.593350
0.593350
0.592380
0.591400
0.588470
0.584560
0.579670
0.571850
0.562070
0.549360
0.535680
0.521020
0.508310
0.498530
0.490710
0.484850
0.482890
0.479960
0.478010
0.476050
0.475070
0.473120
0.471160
0.469210
0.467250
0.463340
0.459430
0.455520
0.451610
0.446730
0.442820
0.437930
0.433040
0.428150
0.424240
0.419350
0.415440
0.412510
0.409580
0.406650
0.404690
0.402740
0.400780
0.399800
0.398830
0.401760
0.406650
0.409580
0.411530
0.412510
0.412510
0.412510
0.413490
0.413490
0.413490
0.414470
0.415440
0.415440
0.415440
0.413490
0.411530
0.408600
0.405670
0.402740
0.400780
0.398830
0.399800
0.402740
0.407620
0.414470
0.426200
0.441840
0.461390
0.482890
0.504400
0.524930
0.543500
0.558160
0.569890
0.578690
0.584560
0.587490
0.589440
0.591400
0.590420
0.589440
0.587490
0.583580
0.578690
0.571850
0.563050
0.551320
0.538610
0.526880
0.517110
0.509290
0.502440
0.496580
0.493650
0.490710
0.487780
0.485830
0.483870
0.480940
0.478010
0.475070
0.474100
0.472140
0.468230
0.465300
0.461390
0.456500
0.453570
0.451610
0.449660
0.446730
0.444770
0.441840
0.437930
0.434020
0.430110
0.425220
0.421310
0.418380
0.417400
0.416420
0.416420
0.415440
0.414470
0.414470
0.414470
0.414470
0.413490
0.411530
0.410560
0.411530
0.412510
0.412510
0.413490
0.414470
0.414470
0.413490
0.411530
0.410560
0.408600
0.406650
0.405670
0.405670
0.407620
0.410560
0.415440
0.423260
0.435970
0.452590
0.472140
0.490710
0.506350
0.523950
0.541540
0.556210
0.567940
0.576740
0.581620
0.586510
0.589440
0.590420
0.588470
0.586510
0.584560
0.580650
0.573800
0.565000
0.554250
0.540570
0.527860
0.514170
0.502440
0.493650
0.485830
0.480940
0.478010
0.477030
0.475070
0.472140
0.469210
0.466280
0.463340
0.460410
0.459430
0.459430
0.457480
0.455520
0.453570
0.449660
0.445750
0.440860
0.435970
0.432060
0.428150
0.425220
0.422290
0.420330
0.419350
0.417400
0.416420
0.416420
0.416420
0.416420
0.416420
0.415440
0.414470
0.413490
0.413490
0.413490
0.413490
0.414470
0.414470
0.415440
0.415440
0.415440
0.415440
0.415440
0.414470
0.414470
0.413490
0.411530
0.410560
0.408600
0.408600
0.410560
0.412510
0.416420
0.424240
0.435970
0.452590
0.473120
0.495600
0.517110
0.538610
0.558160
0.574780
0.587490
0.595310
0.600200
0.603130
0.605080
0.605080
0.604110
0.601170
0.597260
0.594330
0.590420
0.587490
0.581620
0.574780
0.566960
0.557180
0.547410
0.536660
0.526880
0.517110
0.509290
0.503420
0.499510
0.497560
0.496580
0.495600
0.495600
0.494620
0.492670
0.487780
0.482890
0.478010
0.473120
0.468230
0.465300
0.463340
0.460410
0.458460
0.456500
0.453570
0.450640
0.447700
0.442820
0.437930
0.432060
0.427170
0.424240
0.420330
0.418380
0.417400
0.415440
0.415440
0.415440
0.415440
0.414470
0.413490
0.412510
0.410560
0.409580
0.409580
0.411530
0.415440
0.419350
0.421310
0.422290
0.423260
0.423260
0.421310
0.419350
0.417400
0.415440
0.415440
0.417400
0.423260
0.434020
0.446730
0.460410
0.475070
0.491690
0.509290
0.526880
0.542520
0.557180
0.568910
0.577710
0.582600
0.585530
0.587490
0.587490
0.585530
0.582600
0.579670
0.576740
0.571850
0.565000
0.557180
0.546430
0.535680
0.523950
0.514170
0.507330
0.501470
0.496580
0.492670
0.491690
0.490710
0.489740
0.487780
0.485830
0.482890
0.479960
0.476050
0.472140
0.468230
0.466280
0.464320
0.461390
0.459430
0.455520
0.452590
0.449660
0.445750
0.441840
0.437930
0.434020
0.430110
0.427170
0.424240
0.422290
0.420330
0.419350
0.418380
0.417400
0.416420
0.417400
0.417400
0.417400
0.418380
0.418380
0.418380
0.418380
0.418380
0.416420
0.415440
0.415440
0.415440
0.415440
0.415440
0.415440
0.413490
0.412510
0.411530
0.410560
0.410560
0.411530
0.414470
0.420330
0.429130
0.442820
0.459430
0.478010
0.497560
0.515150
0.530790
0.542520
0.553270
0.563050
0.569890
0.574780
0.577710
0.578690
0.577710
0.575760
0.573800
0.571850
0.568910
0.565000
0.559140
0.553270
0.545450
0.535680
0.524930
0.515150
0.506350
0.499510
0.492670
0.487780
0.484850
0.483870
0.481920
0.479960
0.478010
0.477030
0.475070
0.472140
0.469210
0.466280
0.462370
0.458460
0.454550
0.451610
0.449660
0.447700
0.444770
0.441840
0.437930
0.433040
0.429130
0.426200
0.425220
0.424240
0.424240
0.423260
0.423260
0.423260
0.423260
0.422290
0.421310
0.421310
0.420330
0.421310
0.422290
0.422290
0.423260
0.422290
0.422290
0.423260
0.423260
0.423260
0.423260
0.423260
0.423260
0.421310
0.420330
0.418380
0.418380
0.419350
0.420330
0.423260
0.427170
0.435000
0.446730
0.461390
0.478980
0.497560
0.516130
0.532750
0.548390
0.560120
0.568910
0.574780
0.577710
0.578690
0.577710
0.575760
0.573800
0.571850
0.568910
0.565980
0.560120
0.552300
0.543500
0.532750
0.521990
0.512220
0.502440
0.494620
0.488760
0.482890
0.479960
0.478010
0.476050
0.474100
0.472140
0.470190
0.467250
0.464320
0.461390
0.458460
0.454550
0.450640
0.445750
0.440860
0.435970
0.431090
0.427170
0.424240
0.423260
0.423260
0.423260
0.423260
0.423260
0.422290
0.422290
0.423260
0.423260
0.423260
0.423260
0.423260
0.423260
0.423260
0.423260
0.423260
0.423260
0.422290
0.422290
0.422290
0.422290
0.422290
0.423260
0.423260
0.423260
0.422290
0.421310
0.421310
0.420330
0.418380
0.418380
0.419350
0.422290
0.426200
0.434020
0.445750
0.461390
0.479960
0.499510
0.517110
0.531770
0.548390
0.563050
0.575760
0.584560
0.591400
0.595310
0.597260
0.598240
0.598240
0.597260
0.594330
0.590420
0.586510
0.581620
0.573800
0.565000
0.553270
0.541540
0.530790
0.520040
0.512220
0.505380
0.501470
0.497560
0.494620
0.491690
0.489740
0.487780
0.484850
0.482890
0.480940
0.478010
0.476050
0.474100
0.472140
0.470190
0.468230
0.467250
0.466280
0.464320
0.460410
0.455520
0.450640
0.446730
0.441840
0.437930
0.434020
0.431090
0.428150
0.426200
0.424240
0.423260
0.422290
0.422290
0.421310
0.420330
0.420330
0.419350
0.418380
0.418380
0.418380
0.419350
0.420330
0.420330
0.421310
0.421310
0.421310
0.421310
0.421310
0.419350
0.418380
0.417400
0.417400
0.419350
0.420330
0.422290
0.427170
0.435970
0.449660
0.466280
0.485830
0.505380
0.524930
0.543500
0.560120
0.571850
0.579670
0.583580
0.585530
0.587490
0.586510
0.586510
0.585530
0.584560
0.582600
0.577710
0.571850
0.565000
0.556210
0.546430
0.536660
0.524930
0.516130
0.508310
0.502440
0.496580
0.493650
0.491690
0.491690
0.489740
0.486800
0.483870
0.479960
0.477030
0.476050
0.475070
0.475070
0.473120
0.471160
0.469210
0.466280
0.462370
0.458460
0.454550
0.449660
0.444770
0.439880
0.435000
0.429130
0.425220
0.423260
0.422290
0.421310
0.421310
0.421310
0.421310
0.420330
0.420330
0.419350
0.419350
0.419350
0.420330
0.420330
0.419350
0.418380
0.417400
0.416420
0.415440
0.416420
0.416420
0.417400
0.417400
0.417400
0.416420
0.416420
0.415440
0.416420
0.418380
0.422290
0.429130
0.437930
0.448680
0.464320
0.481920
0.500490
0.518080
0.533720
0.548390
0.561090
0.570870
0.578690
0.581620
0.583580
0.583580
0.582600
0.580650
0.578690
0.575760
0.571850
0.565980
0.559140
0.549360
0.537630
0.526880
0.516130
0.508310
0.501470
0.496580
0.491690
0.487780
0.486800
0.485830
0.483870
0.480940
0.478980
0.475070
0.471160
0.468230
0.465300
0.462370
0.460410
0.457480
0.454550
0.451610
0.448680
0.444770
0.440860
0.436950
0.433040
0.429130
0.425220
0.423260
0.420330
0.417400
0.415440
0.415440
0.416420
0.416420
0.417400
0.418380
0.418380
0.416420
0.415440
0.413490
0.411530
0.410560
0.411530
0.413490
0.415440
0.418380
0.420330
0.421310
0.420330
0.419350
0.417400
0.415440
0.414470
0.411530
0.410560
0.409580
0.411530
0.413490
0.418380
0.426200
0.435970
0.449660
0.467250
0.482890
0.497560
0.513200
0.528840
0.543500
0.554250
0.563050
0.568910
0.571850
0.573800
0.575760
0.575760
0.575760
0.574780
0.572830
0.569890
0.565980
0.559140
0.549360
0.538610
0.525900
0.514170
0.503420
0.494620
0.487780
0.483870
0.480940
0.479960
0.479960
0.478980
0.478980
0.478980
0.478980
0.478980
0.478010
0.474100
0.470190
0.467250
0.464320
0.459430
0.455520
0.452590
0.448680
0.445750
0.442820
0.438910
0.435970
0.434020
0.432060
0.428150
0.425220
0.423260
0.420330
0.418380
0.416420
0.416420
0.417400
0.418380
0.418380
0.418380
0.418380
0.416420
0.415440
0.414470
0.412510
0.410560
0.410560
0.411530
0.413490
0.415440
0.417400
0.417400
0.416420
0.414470
0.412510
0.410560
0.410560
0.411530
0.414470
0.419350
0.427170
0.439880
0.455520
0.473120
0.490710
0.508310
0.523950
0.536660
0.546430
0.555230
0.562070
0.565980
0.567940
0.568910
0.568910
0.567940
0.565980
0.563050
0.558160
0.551320
0.544480
0.535680
0.524930
0.514170
0.505380
0.497560
0.490710
0.484850
0.480940
0.478010
0.477030
0.477030
0.477030
0.475070
0.473120
0.471160
0.467250
0.462370
0.458460
0.454550
0.451610
0.447700
0.443790
0.440860
0.438910
0.435970
0.433040
0.430110
0.427170
0.424240
0.421310
0.419350
0.418380
0.416420
0.414470
0.413490
0.412510
0.414470
0.416420
0.417400
0.418380
0.418380
0.419350
0.418380
0.417400
0.417400
0.416420
0.415440
0.416420
0.416420
0.417400
0.418380
0.418380
0.416420
0.414470
0.412510
0.409580
0.408600
0.409580
0.411530
0.413490
0.419350
0.425220
0.434020
0.446730
0.462370
0.480940
0.498530
0.517110
0.534700
0.550340
0.563050
0.572830
0.580650
0.585530
0.587490
0.588470
0.588470
0.587490
0.584560
0.581620
0.578690
0.576740
0.572830
0.565980
0.557180
0.546430
0.535680
0.525900
0.517110
0.508310
0.501470
0.495600
0.492670
0.490710
0.489740
0.487780
0.485830
0.483870
0.481920
0.480940
0.478980
0.477030
0.475070
0.473120
0.470190
0.467250
0.464320
0.460410
0.457480
0.453570
0.449660
0.446730
0.443790
0.440860
0.437930
0.434020
0.430110
0.426200
0.423260
0.421310
0.419350
0.418380
0.419350
0.418380
0.418380
0.418380
0.419350
0.419350
0.419350
0.418380
0.418380
0.418380
0.418380
0.418380
0.417400
0.417400
0.416420
0.416420
0.416420
0.415440
0.414470
0.414470
0.416420
0.417400
0.419350
0.422290
0.430110
0.440860
0.453570
0.467250
0.483870
0.501470
0.519060
0.535680
0.550340
0.562070
0.570870
0.576740
0.579670
0.581620
0.582600
0.581620
0.580650
0.578690
0.574780
0.568910
0.562070
0.555230
0.546430
0.536660
0.525900
0.516130
0.507330
0.500490
0.495600
0.490710
0.485830
0.482890
0.481920
0.478980
0.477030
0.476050
0.475070
0.474100
0.472140
0.469210
0.467250
0.464320
0.460410
0.455520
0.450640
0.446730
0.443790
0.440860
0.438910
0.435970
0.434020
0.431090
0.428150
0.425220
0.421310
0.418380
0.416420
0.415440
0.414470
0.415440
0.416420
0.418380
0.418380
0.418380
0.417400
0.417400
0.417400
0.418380
0.418380
0.418380
0.418380
0.419350
0.419350
0.418380
0.417400
0.414470
0.412510
0.411530
0.410560
0.410560
0.411530
0.414470
0.418380
0.425220
0.435000
0.446730
0.462370
0.479960
0.497560
0.514170
0.527860
0.538610
0.549360
0.558160
0.565000
0.568910
0.572830
0.575760
0.575760
0.574780
0.572830
0.570870
0.567940
0.563050
0.556210
0.548390
0.537630
0.524930
0.514170
0.506350
0.499510
0.493650
0.488760
0.483870
0.481920
0.480940
0.480940
0.479960
0.479960
0.479960
0.478980
0.477030
0.473120
0.468230
0.463340
0.458460
0.453570
0.448680
0.444770
0.439880
0.435970
0.434020
0.433040
0.430110
0.428150
0.425220
0.422290
0.420330
0.417400
0.416420
0.415440
0.415440
0.416420
0.418380
0.418380
0.418380
0.418380
0.419350
0.419350
0.419350
0.419350
0.419350
0.419350
0.418380
0.417400
0.416420
0.415440
0.414470
0.415440
0.415440
0.414470
0.413490
0.412510
0.412510
0.414470
0.416420
0.419350
0.425220
0.435970
0.451610
0.469210
0.488760
0.506350
0.522970
0.537630
0.549360
0.559140
0.565980
0.569890
0.572830
0.575760
0.577710
0.576740
0.575760
0.572830
0.569890
0.564030
0.557180
0.548390
0.539590
0.530790
0.522970
0.514170
0.506350
0.499510
0.493650
0.488760
0.485830
0.483870
0.483870
0.482890
0.482890
0.482890
0.480940
0.478980
0.477030
0.474100
0.472140
0.469210
0.466280
0.463340
0.459430
0.455520
0.450640
0.445750
0.441840
0.437930
0.434020
0.431090
0.427170
0.423260
0.421310
0.419350
0.417400
0.416420
0.417400
0.418380
0.418380
0.419350
0.419350
0.419350
0.418380
0.418380
0.419350
0.419350
0.419350
0.419350
0.419350
0.418380
0.417400
0.416420
0.414470
0.412510
0.409580
0.407620
0.404690
0.402740
0.402740
0.404690
0.410560
0.420330
0.434020
0.448680
0.464320
0.481920
0.499510
0.515150
0.529810
0.541540
0.550340
0.557180
0.561090
0.566960
0.573800
0.577710
0.577710
0.576740
0.574780
0.571850
0.566960
0.560120
0.553270
0.545450
0.535680
0.524930
0.516130
0.508310
0.502440
0.497560
0.493650
0.491690
0.490710
0.490710
0.488760
0.486800
0.484850
0.482890
0.479960
0.476050
0.473120
0.470190
0.469210
0.466280
0.464320
0.461390
0.458460
0.455520
0.453570
0.450640
0.447700
0.444770
0.441840
0.437930
0.434020
0.430110
0.427170
0.425220
0.425220
0.425220
0.425220
0.425220
0.425220
0.425220
0.425220
0.425220
0.424240
0.424240
0.423260
0.423260
0.424240
0.424240
0.425220
0.425220
0.424240
0.423260
0.422290
0.420330
0.420330
0.422290
0.423260
0.425220
0.427170
0.433040
0.442820
0.456500
0.473120
0.492670
0.512220
0.531770
0.548390
0.562070
0.574780
0.585530
0.592380
0.595310
0.597260
0.598240
0.598240
0.596290
0.594330
0.591400
0.589440
0.586510
0.582600
0.576740
0.568910
0.561090
0.550340
0.540570
0.529810
0.521020
0.514170
0.508310
0.504400
0.502440
0.501470
0.500490
0.497560
0.495600
0.492670
0.491690
0.490710
0.489740
0.487780
0.484850
0.480940
0.477030
0.473120
0.470190
0.467250
0.465300
0.464320
0.463340
0.463340
0.461390
0.458460
0.455520
0.450640
0.445750
0.441840
0.437930
0.434020
0.430110
0.427170
0.426200
0.425220
0.424240
0.424240
0.424240
0.423260
0.422290
0.423260
0.424240
0.424240
0.423260
0.424240
0.424240
0.423260
0.422290
0.420330
0.420330
0.422290
0.423260
0.424240
0.424240
0.426200
0.431090
0.439880
0.452590
0.468230
0.486800
0.505380
0.522970
0.538610
0.552300
0.564030
0.573800
0.579670
0.582600
0.586510
0.587490
0.587490
0.585530
0.583580
0.580650
0.575760
0.568910
0.561090
0.552300
0.542520
0.532750
0.522970
0.514170
0.507330
0.501470
0.497560
0.494620
0.491690
0.489740
0.488760
0.486800
0.483870
0.482890
0.482890
0.480940
0.478980
0.476050
0.472140
0.468230
0.464320
0.461390
0.457480
0.455520
0.453570
0.450640
0.446730
0.442820
0.437930
0.433040
0.428150
0.425220
0.423260
0.421310
0.420330
0.420330
0.419350
0.420330
0.422290
0.423260
0.423260
0.423260
0.423260
0.422290
0.421310
0.421310
0.421310
0.422290
0.423260
0.423260
0.423260
0.423260
0.422290
0.420330
0.417400
0.415440
0.413490
0.413490
0.415440
0.418380
0.425220
0.435970
0.447700
0.460410
0.478010
0.496580
0.515150
0.531770
0.546430
0.558160
0.567940
0.574780
0.578690
0.582600
0.584560
0.584560
0.582600
0.580650
0.577710
0.573800
0.565980
0.559140
0.551320
0.541540
0.530790
0.521020
0.512220
0.505380
0.500490
0.496580
0.493650
0.490710
0.488760
0.488760
0.487780
0.487780
0.485830
0.483870
0.481920
0.479960
0.478010
0.475070
0.472140
0.468230
0.465300
0.461390
0.457480
0.453570
0.450640
0.445750
0.441840
0.438910
0.435970
0.434020
0.432060
0.430110
0.428150
0.426200
0.424240
0.423260
0.422290
0.420330
0.420330
0.419350
0.418380
0.417400
0.416420
0.416420
0.415440
0.415440
0.415440
0.414470
0.413490
0.411530
0.409580
0.407620
0.405670
0.404690
0.403710
0.404690
0.405670
0.409580
0.415440
0.422290
0.433040
0.444770
0.460410
0.478980
0.497560
0.516130
0.532750
0.546430
0.558160
0.567940
0.574780
0.577710
0.577710
0.576740
0.574780
0.572830
0.569890
0.565980
0.561090
0.555230
0.547410
0.538610
0.526880
0.515150
0.504400
0.496580
0.488760
0.482890
0.478010
0.474100
0.473120
0.472140
0.471160
0.471160
0.470190
0.469210
0.466280
0.464320
0.461390
0.458460
0.456500
0.455520
0.455520
0.454550
0.452590
0.450640
0.446730
0.442820
0.437930
0.433040
0.427170
0.423260
0.421310
0.419350
0.418380
0.418380
0.418380
0.419350
0.419350
0.419350
0.419350
0.418380
0.418380
0.418380
0.416420
0.415440
0.414470
0.415440
0.416420
0.418380
0.418380
0.419350
0.419350
0.419350
0.418380
0.418380
0.418380
0.418380
0.419350
0.419350
0.420330
0.424240
0.431090
0.441840
0.456500
0.474100
0.495600
0.516130
0.536660
0.555230
0.569890
0.580650
0.586510
0.589440
0.590420
0.589440
0.589440
0.587490
0.585530
0.583580
0.580650
0.577710
0.572830
0.565980
0.559140
0.551320
0.542520
0.533720
0.524930
0.516130
0.508310
0.502440
0.496580
0.493650
0.491690
0.490710
0.490710
0.490710
0.490710
0.490710
0.488760
0.485830
0.481920
0.478980
0.476050
0.473120
0.469210
0.465300
0.461390
0.457480
0.453570
0.450640
0.447700
0.444770
0.441840
0.438910
0.435970
0.434020
0.432060
0.430110
0.427170
0.425220
0.422290
0.421310
0.420330
0.419350
0.418380
0.419350
0.419350
0.419350
0.419350
0.419350
0.419350
0.419350
0.418380
0.417400
0.417400
0.416420
0.414470
0.413490
0.413490
0.412510
0.414470
0.416420
0.419350
0.425220
0.434020
0.447700
0.462370
0.478010
0.495600
0.514170
0.530790
0.546430
0.560120
0.570870
0.578690
0.583580
0.585530
0.587490
0.586510
0.585530
0.583580
0.579670
0.574780
0.567940
0.561090
0.553270
0.545450
0.537630
0.528840
0.520040
0.512220
0.506350
0.501470
0.496580
0.492670
0.490710
0.488760
0.486800
0.484850
0.484850
0.483870
0.482890
0.479960
0.478980
0.478010
0.475070
0.471160
0.467250
0.462370
0.458460
0.453570
0.448680
0.445750
0.441840
0.438910
0.435970
0.433040
0.430110
0.427170
0.425220
0.423260
0.422290
0.421310
0.421310
0.421310
0.420330
0.420330
0.420330
0.421310
0.421310
0.422290
0.422290
0.422290
0.422290
0.421310
0.419350
0.417400
0.415440
0.412510
0.411530
0.412510
0.413490
0.413490
0.414470
0.416420
0.419350
0.424240
0.431090
0.440860
0.454550
0.472140
0.490710
0.509290
0.524930
0.536660
0.549360
0.560120
0.568910
0.574780
0.579670
0.581620
0.581620
0.579670
0.577710
0.575760
0.571850
0.566960
0.560120
0.552300
0.541540
0.528840
0.517110
0.507330
0.499510
0.494620
0.491690
0.490710
0.489740
0.489740
0.488760
0.487780
0.484850
0.481920
0.478980
0.475070
0.472140
0.468230
0.465300
0.462370
0.459430
0.457480
0.454550
0.453570
0.452590
0.450640
0.448680
0.446730
0.445750
0.443790
0.440860
0.436950
0.433040
0.429130
0.426200
0.424240
0.423260
0.422290
0.422290
0.422290
0.421310
0.421310
0.421310
0.421310
0.421310
0.421310
0.421310
0.421310
0.420330
0.419350
0.418380
0.416420
0.416420
0.417400
0.419350
0.421310
0.427170
0.435970
0.447700
0.460410
0.475070
0.491690
0.509290
0.526880
0.541540
0.555230
0.565000
0.571850
0.576740
0.580650
0.583580
0.585530
0.584560
0.582600
0.580650
0.577710
0.572830
0.565000
0.554250
0.542520
0.529810
0.518080
0.509290
0.501470
0.495600
0.490710
0.487780
0.485830
0.484850
0.483870
0.483870
0.481920
0.479960
0.478980
0.476050
0.473120
0.469210
0.466280
0.461390
0.456500
0.451610
0.447700
0.443790
0.439880
0.435970
0.432060
0.428150
0.425220
0.423260
0.422290
0.421310
0.421310
0.421310
0.421310
0.421310
0.420330
0.420330
0.419350
0.418380
0.417400
0.417400
0.417400
0.417400
0.417400
0.418380
0.418380
0.418380
0.418380
0.418380
0.419350
0.420330
0.420330
0.419350
0.417400
0.415440
0.414470
0.412510
0.411530
0.411530
0.413490
0.416420
0.422290
0.430110
0.442820
0.459430
0.478010
0.494620
0.510260
0.526880
0.544480
0.560120
0.572830
0.581620
0.587490
0.590420
0.592380
0.592380
0.590420
0.588470
0.586510
0.583580
0.581620
0.577710
0.570870
0.564030
0.556210
0.548390
0.540570
0.530790
0.522970
0.515150
0.509290
0.505380
0.502440
0.501470
0.500490
0.498530
0.495600
0.492670
0.489740
0.487780
0.486800
0.485830
0.483870
0.481920
0.478980
0.474100
0.468230
0.464320
0.460410
0.456500
0.452590
0.448680
0.444770
0.440860
0.435970
0.432060
0.430110
0.427170
0.424240
0.423260
0.422290
0.422290
0.420330
0.418380
0.416420
0.414470
0.411530
0.409580
0.407620
0.406650
0.406650
0.406650
0.406650
0.406650
0.406650
0.406650
0.406650
0.406650
0.405670
0.403710
0.402740
0.403710
0.404690
0.406650
0.409580
0.418380
0.431090
0.448680
0.470190
0.492670
0.515150
0.535680
0.553270
0.565980
0.575760
0.584560
0.591400
0.596290
0.599220
0.601170
0.601170
0.599220
0.597260
0.594330
0.589440
0.583580
0.576740
0.566960
0.553270
0.539590
0.525900
0.515150
0.506350
0.500490
0.497560
0.496580
0.495600
0.495600
0.494620
0.494620
0.493650
0.489740
0.484850
0.479960
0.476050
0.472140
0.469210
0.466280
0.464320
0.462370
0.459430
0.456500
0.452590
0.448680
0.442820
0.436950
0.432060
0.427170
0.424240
0.421310
0.420330
0.417400
0.415440
0.412510
0.409580
0.407620
0.406650
0.405670
0.404690
0.404690
0.405670
0.405670
0.405670
0.405670
0.405670
0.404690
0.404690
0.402740
0.400780
0.397850
0.394920
0.391980
0.389050
0.387100
0.388070
0.391010
0.396870
0.404690
0.413490
0.429130
0.449660
0.471160
0.493650
0.514170
0.531770
0.548390
0.562070
0.571850
0.578690
0.583580
0.586510
0.588470
0.588470
0.586510
0.584560
0.581620
0.577710
0.571850
0.564030
0.554250
0.541540
0.527860
0.517110
0.509290
0.501470
0.495600
0.490710
0.486800
0.483870
0.480940
0.479960
0.478980
0.476050
0.474100
0.473120
0.470190
0.468230
0.465300
0.462370
0.457480
0.452590
0.446730
0.440860
0.435970
0.432060
0.428150
0.425220
0.422290
0.419350
0.416420
0.411530
0.408600
0.404690
0.401760
0.398830
0.396870
0.395890
0.394920
0.394920
0.396870
0.398830
0.401760
0.403710
0.403710
0.404690
0.404690
0.404690
0.405670
0.405670
0.405670
0.405670
0.405670
0.404690
0.404690
0.402740
0.400780
0.397850
0.396870
0.397850
0.399800
0.406650
0.417400
0.433040
0.452590
0.474100
0.493650
0.510260
0.526880
0.543500
0.558160
0.569890
0.579670
0.585530
0.590420
0.594330
0.597260
0.597260
0.596290
0.592380
0.585530
0.577710
0.567940
0.556210
0.543500
0.532750
0.521990
0.513200
0.505380
0.500490
0.497560
0.496580
0.494620
0.492670
0.488760
0.485830
0.481920
0.478980
0.477030
0.477030
0.476050
0.474100
0.472140
0.470190
0.466280
0.461390
0.455520
0.449660
0.443790
0.437930
0.433040
0.428150
0.424240
0.420330
0.417400
0.414470
0.413490
0.412510
0.411530
0.411530
0.409580
0.407620
0.407620
0.407620
0.409580
0.410560
0.410560
0.411530
0.412510
0.412510
0.411530
0.409580
0.407620
0.404690
0.401760
0.397850
0.394920
0.392960
0.391980
0.393940
0.395890
0.398830
0.403710
0.410560
0.419350
0.432060
0.447700
0.468230
0.490710
0.511240
0.528840
0.546430
0.561090
0.571850
0.578690
0.583580
0.586510
0.588470
0.589440
0.588470
0.587490
0.584560
0.580650
0.574780
0.565980
0.555230
0.543500
0.530790
0.519060
0.508310
0.500490
0.492670
0.487780
0.484850
0.483870
0.482890
0.482890
0.481920
0.481920
0.480940
0.477030
0.474100
0.472140
0.469210
0.466280
0.464320
0.462370
0.458460
0.455520
0.451610
0.447700
0.443790
0.440860
0.437930
0.434020
0.429130
0.424240
0.420330
0.415440
0.412510
0.411530
0.411530
0.411530
0.411530
0.411530
0.412510
0.412510
0.412510
0.412510
0.412510
0.412510
0.412510
0.412510
0.412510
0.412510
0.412510
0.412510
0.412510
0.411530
0.410560
0.409580
0.408600
0.409580
0.411530
0.415440
0.421310
0.431090
0.443790
0.457480
0.473120
0.492670
0.513200
0.534700
0.555230
0.573800
0.589440
0.603130
0.611930
0.618770
0.621700
0.622680
0.622680
0.620720
0.616810
0.611930
0.608020
0.604110
0.598240
0.590420
0.581620
0.571850
0.560120
0.549360
0.539590
0.530790
0.521990
0.516130
0.510260
0.505380
0.503420
0.500490
0.497560
0.496580
0.493650
0.491690
0.489740
0.488760
0.484850
0.480940
0.477030
0.472140
0.468230
0.465300
0.464320
0.463340
0.461390
0.458460
0.454550
0.449660
0.445750
0.439880
0.434020
0.429130
0.424240
0.420330
0.417400
0.414470
0.412510
0.411530
0.412510
0.412510
0.412510
0.412510
0.412510
0.412510
0.412510
0.411530
0.410560
0.410560
0.408600
0.406650
0.403710
0.400780
0.399800
0.398830
0.398830
0.399800
0.402740
0.405670
0.412510
0.423260
0.438910
0.457480
0.478010
0.500490
0.519060
0.534700
0.550340
0.565000
0.576740
0.587490
0.596290
0.602150
0.605080
0.607040
0.607040
0.606060
0.603130
0.598240
0.591400
0.583580
0.573800
0.562070
0.548390
0.534700
0.523950
0.514170
0.506350
0.499510
0.495600
0.493650
0.492670
0.492670
0.491690
0.491690
0.491690
0.490710
0.488760
0.485830
0.482890
0.479960
0.474100
0.469210
0.463340
0.458460
0.453570
0.448680
0.443790
0.438910
0.435000
0.431090
0.427170
0.422290
0.419350
0.415440
0.413490
0.412510
0.411530
0.411530
0.411530
0.410560
0.409580
0.410560
0.410560
0.410560
0.409580
0.409580
0.409580
0.410560
0.409580
0.408600
0.407620
0.406650
0.405670
0.404690
0.404690
0.403710
0.403710
0.405670
0.407620
0.409580
0.410560
0.414470
0.422290
0.434020
0.449660
0.469210
0.489740
0.508310
0.525900
0.541540
0.556210
0.566960
0.575760
0.582600
0.587490
0.590420
0.590420
0.588470
0.586510
0.582600
0.578690
0.571850
0.565000
0.556210
0.548390
0.539590
0.528840
0.519060
0.509290
0.501470
0.494620
0.488760
0.485830
0.483870
0.482890
0.481920
0.481920
0.481920
0.480940
0.478980
0.474100
0.469210
0.464320
0.460410
0.457480
0.454550
0.452590
0.450640
0.447700
0.444770
0.440860
0.435970
0.432060
0.428150
0.424240
0.421310
0.419350
0.416420
0.413490
0.412510
0.411530
0.411530
0.410560
0.409580
0.409580
0.409580
0.410560
0.410560
0.410560
0.410560
0.410560
0.410560
0.409580
0.407620
0.406650
0.404690
0.402740
0.400780
0.397850
0.394920
0.392960
0.391980
0.394920
0.400780
0.409580
0.422290
0.435970
0.451610
0.471160
0.491690
0.513200
0.532750
0.550340
0.564030
0.574780
0.582600
0.587490
0.591400
0.592380
0.591400
0.589440
0.586510
0.583580
0.577710
0.570870
0.562070
0.552300
0.539590
0.526880
0.513200
0.501470
0.492670
0.485830
0.480940
0.478010
0.476050
0.473120
0.470190
0.466280
0.463340
0.459430
0.455520
0.452590
0.449660
0.447700
0.445750
0.442820
0.439880
0.436950
0.434020
0.431090
0.427170
0.425220
0.422290
0.419350
0.416420
0.413490
0.411530
0.410560
0.410560
0.409580
0.410560
0.410560
0.410560
0.410560
0.410560
0.410560
0.409580
0.410560
0.410560
0.410560
0.410560
0.410560
0.409580
0.410560
0.409580
0.409580
0.409580
0.408600
0.407620
0.406650
0.406650
0.407620
0.409580
0.410560
0.415440
0.425220
0.438910
0.458460
0.479960
0.503420
0.525900
0.546430
0.565000
0.578690
0.588470
0.595310
0.601170
0.604110
0.605080
0.606060
0.606060
0.604110
0.601170
0.597260
0.592380
0.585530
0.578690
0.570870
0.562070
0.551320
0.541540
0.531770
0.521990
0.514170
0.506350
0.500490
0.493650
0.489740
0.486800
0.485830
0.485830
0.484850
0.484850
0.483870
0.480940
0.478980
0.475070
0.472140
0.468230
0.464320
0.460410
0.457480
0.453570
0.448680
0.442820
0.437930
0.433040
0.429130
0.427170
0.424240
0.422290
0.419350
0.416420
0.414470
0.413490
0.412510
0.411530
0.411530
0.411530
0.411530
0.411530
0.410560
0.410560
0.410560
0.410560
0.411530
0.411530
0.411530
0.410560
0.408600
0.406650
0.403710
0.400780
0.398830
0.399800
0.403710
0.409580
0.416420
0.426200
0.439880
0.458460
0.478980
0.499510
0.520040
0.538610
0.555230
0.568910
0.580650
0.589440
0.595310
0.596290
0.597260
0.596290
0.594330
0.592380
0.588470
0.582600
0.575760
0.567940
0.559140
0.550340
0.541540
0.532750
0.523950
0.514170
0.506350
0.499510
0.493650
0.489740
0.487780
0.486800
0.484850
0.481920
0.478980
0.476050
0.474100
0.472140
0.470190
0.468230
0.465300
0.461390
0.457480
0.452590
0.446730
0.440860
0.435000
0.430110
0.425220
0.421310
0.417400
0.414470
0.411530
0.410560
0.411530
0.411530
0.411530
0.411530
0.411530
0.411530
0.410560
0.409580
0.408600
0.405670
0.404690
0.403710
0.403710
0.405670
0.407620
0.408600
0.409580
0.409580
0.408600
0.408600
0.407620
0.405670
0.403710
0.401760
0.400780
0.403710
0.409580
0.418380
0.429130
0.444770
0.464320
0.484850
0.502440
0.518080
0.534700
0.548390
0.560120
0.569890
0.576740
0.581620
0.585530
0.589440
0.590420
0.590420
0.588470
0.585530
0.579670
0.572830
0.563050
0.551320
0.537630
0.523950
0.512220
0.503420
0.496580
0.489740
0.483870
0.480940
0.478980
0.478010
0.478010
0.477030
0.477030
0.477030
0.476050
0.473120
0.469210
0.466280
0.463340
0.458460
0.455520
0.451610
0.446730
0.442820
0.438910
0.435000
0.432060
0.429130
0.425220
0.422290
0.418380
0.413490
0.411530
0.410560
0.410560
0.410560
0.411530
0.411530
0.411530
0.411530
0.411530
0.411530
0.410560
0.410560
0.410560
0.410560
0.411530
0.411530
0.411530
0.410560
0.408600
0.406650
0.403710
0.401760
0.400780
0.402740
0.405670
0.409580
0.413490
0.422290
0.435000
0.450640
0.470190
0.490710
0.512220
0.530790
0.547410
0.561090
0.571850
0.578690
0.582600
0.585530
0.585530
0.584560
0.582600
0.580650
0.577710
0.572830
0.565980
0.558160
0.546430
0.534700
0.523950
0.515150
0.506350
0.499510
0.492670
0.486800
0.479960
0.475070
0.470190
0.466280
0.463340
0.460410
0.458460
0.455520
0.452590
0.448680
0.444770
0.440860
0.436950
0.432060
0.427170
0.422290
0.417400
0.413490
0.411530
0.410560
0.408600
0.406650
0.403710
0.400780
0.397850
0.394920
0.392960
0.393940
0.395890
0.398830
0.400780
0.403710
0.404690
0.405670
0.406650
0.407620
0.408600
0.409580
0.410560
0.410560
0.409580
0.409580
0.408600
0.408600
0.407620
0.406650
0.406650
0.405670
0.404690
0.406650
0.409580
0.417400
0.429130
0.445750
0.468230
0.493650
0.516130
0.535680
0.556210
0.575760
0.594330
0.608020
0.616810
0.622680
0.625610
0.626590
0.627570
0.627570
0.626590
0.622680
0.616810
0.610950
0.603130
0.593350
0.581620
0.568910
0.556210
0.544480
0.533720
0.523950
0.515150
0.509290
0.506350
0.504400
0.503420
0.503420
0.503420
0.502440
0.500490
0.496580
0.491690
0.486800
0.482890
0.479960
0.476050
0.472140
0.468230
0.464320
0.460410
0.454550
0.450640
0.446730
0.443790
0.440860
0.437930
0.435970
0.434020
0.432060
0.428150
0.424240
0.420330
0.417400
0.415440
0.414470
0.413490
0.412510
0.412510
0.412510
0.412510
0.412510
0.411530
0.411530
0.411530
0.411530
0.409580
0.406650
0.403710
0.400780
0.398830
0.398830
0.399800
0.401760
0.405670
0.411530
0.422290
0.436950
0.455520
0.477030
0.498530
0.520040
0.541540
0.562070
0.580650
0.593350
0.601170
0.608020
0.613880
0.615840
0.616810
0.616810
0.614860
0.610950
0.608020
0.603130
0.596290
0.587490
0.579670
0.569890
0.557180
0.543500
0.529810
0.519060
0.509290
0.502440
0.497560
0.495600
0.494620
0.493650
0.493650
0.492670
0.490710
0.487780
0.484850
0.481920
0.478980
0.477030
0.476050
0.473120
0.470190
0.466280
0.461390
0.456500
0.451610
0.445750
0.439880
0.434020
0.427170
0.421310
0.416420
0.413490
0.412510
0.412510
0.411530
0.411530
0.411530
0.411530
0.412510
0.411530
0.409580
0.406650
0.403710
0.402740
0.403710
0.403710
0.404690
0.405670
0.408600
0.409580
0.408600
0.406650
0.403710
0.400780
0.399800
0.400780
0.402740
0.405670
0.412510
0.423260
0.435970
0.450640
0.470190
0.492670
0.516130
0.538610
0.559140
0.575760
0.589440
0.598240
0.602150
0.604110
0.605080
0.605080
0.605080
0.603130
0.600200
0.597260
0.591400
0.583580
0.575760
0.565000
0.552300
0.537630
0.523950
0.514170
0.506350
0.498530
0.490710
0.484850
0.481920
0.479960
0.478980
0.478010
0.478010
0.476050
0.473120
0.470190
0.466280
0.460410
0.455520
0.451610
0.447700
0.442820
0.438910
0.435000
0.431090
0.427170
0.424240
0.421310
0.418380
0.416420
0.414470
0.412510
0.409580
0.407620
0.406650
0.405670
0.404690
0.404690
0.403710
0.403710
0.402740
0.402740
0.403710
0.405670
0.408600
0.410560
0.411530
0.411530
0.411530
0.409580
0.406650
0.404690
0.402740
0.400780
0.398830
0.399800
0.401760
0.404690
0.407620
0.413490
0.424240
0.439880
0.459430
0.480940
0.502440
0.521020
0.536660
0.550340
0.563050
0.571850
0.577710
0.582600
0.585530
0.586510
0.586510
0.585530
0.582600
0.577710
0.570870
0.563050
0.553270
0.540570
0.526880
0.513200
0.501470
0.491690
0.483870
0.478010
0.474100
0.471160
0.468230
0.466280
0.464320
0.462370
0.458460
0.454550
0.450640
0.446730
0.441840
0.436950
0.433040
0.430110
0.427170
0.424240
0.421310
0.417400
0.412510
0.408600
0.404690
0.400780
0.397850
0.394920
0.392960
0.391980
0.391980
0.392960
0.393940
0.394920
0.394920
0.392960
0.391010
0.389050
0.387100
0.386120
0.386120
0.387100
0.388070
0.389050
0.390030
0.391010
0.390030
0.388070
0.386120
0.383190
0.381230
0.380250
0.380250
0.381230
0.385140
0.391980
0.399800
0.409580
0.425220
0.444770
0.466280
0.488760
0.511240
0.531770
0.550340
0.565980
0.576740
0.585530
0.591400
0.593350
0.594330
0.594330
0.592380
0.589440
0.586510
0.582600
0.575760
0.567940
0.559140
0.547410
0.534700
0.521990
0.512220
0.502440
0.495600
0.489740
0.487780
0.485830
0.485830
0.484850
0.484850
0.483870
0.481920
0.477030
0.473120
0.470190
0.468230
0.465300
0.463340
0.462370
0.461390
0.458460
0.455520
0.451610
0.448680
0.444770
0.440860
0.437930
0.434020
0.430110
0.425220
0.421310
0.416420
0.413490
0.409580
0.407620
0.406650
0.405670
0.405670
0.405670
0.404690
0.403710
0.404690
0.403710
0.403710
0.403710
0.403710
0.404690
0.404690
0.404690
0.404690
0.403710
0.402740
0.402740
0.402740
0.403710
0.405670
0.410560
0.419350
0.432060
0.449660
0.470190
0.492670
0.514170
0.532750
0.549360
0.565980
0.579670
0.590420
0.597260
0.602150
0.604110
0.605080
0.604110
0.601170
0.596290
0.591400
0.587490
0.582600
0.575760
0.567940
0.556210
0.543500
0.530790
0.518080
0.507330
0.499510
0.491690
0.486800
0.484850
0.482890
0.482890
0.481920
0.481920
0.481920
0.480940
0.478980
0.476050
0.472140
0.467250
0.463340
0.460410
0.458460
0.455520
0.452590
0.448680
0.444770
0.439880
0.435000
0.430110
0.426200
0.422290
0.419350
0.418380
0.416420
0.413490
0.411530
0.409580
0.407620
0.406650
0.405670
0.405670
0.405670
0.405670
0.405670
0.405670
0.405670
0.404690
0.403710
0.401760
0.399800
0.397850
0.395890
0.393940
0.391980
0.391010
0.391980
0.392960
0.395890
0.398830
0.404690
0.412510
0.426200
0.443790
0.464320
0.486800
0.510260
0.530790
0.547410
0.560120
0.570870
0.579670
0.585530
0.588470
0.590420
0.591400
0.591400
0.591400
0.589440
0.586510
0.581620
0.574780
0.565980
0.555230
0.544480
0.531770
0.519060
0.509290
0.500490
0.493650
0.487780
0.482890
0.480940
0.478980
0.478980
0.478010
0.476050
0.473120
0.468230
0.463340
0.458460
0.455520
0.450640
0.447700
0.445750
0.444770
0.441840
0.438910
0.435000
0.431090
0.426200
0.421310
0.418380
0.416420
0.414470
0.414470
0.412510
0.411530
0.410560
0.410560
0.410560
0.411530
0.412510
0.413490
0.414470
0.414470
0.413490
0.413490
0.413490
0.413490
0.413490
0.414470
0.415440
0.415440
0.415440
0.413490
0.411530
0.408600
0.405670
0.403710
0.403710
0.404690
0.408600
0.414470
0.425220
0.439880
0.454550
0.471160
0.489740
0.508310
0.527860
0.545450
0.559140
0.570870
0.579670
0.586510
0.589440
0.590420
0.590420
0.589440
0.587490
0.584560
0.580650
0.573800
0.565980
0.555230
0.543500
0.529810
0.517110
0.506350
0.497560
0.491690
0.486800
0.483870
0.482890
0.481920
0.481920
0.480940
0.480940
0.479960
0.477030
0.473120
0.469210
0.466280
0.463340
0.460410
0.457480
0.454550
0.452590
0.448680
0.443790
0.437930
0.433040
0.427170
0.423260
0.420330
0.418380
0.417400
0.416420
0.415440
0.414470
0.413490
0.411530
0.410560
0.411530
0.412510
0.414470
0.415440
0.415440
0.415440
0.415440
0.415440
0.413490
0.411530
0.410560
0.408600
0.405670
0.402740
0.400780
0.399800
0.397850
0.396870
0.396870
0.398830
0.402740
0.409580
0.419350
0.432060
0.447700
0.467250
0.487780
0.508310
0.526880
0.540570
0.551320
0.561090
0.568910
0.573800
0.577710
0.580650
0.582600
0.583580
0.582600
0.580650
0.577710
0.571850
0.565980
0.557180
0.545450
0.531770
0.518080
0.505380
0.493650
0.484850
0.477030
0.472140
0.469210
0.468230
0.467250
0.464320
0.463340
0.462370
0.460410
0.457480
0.455520
0.452590
0.450640
0.447700
0.445750
0.444770
0.443790
0.440860
0.436950
0.432060
0.427170
0.422290
0.418380
0.415440
0.414470
0.413490
0.414470
0.415440
0.414470
0.414470
0.415440
0.414470
0.414470
0.414470
0.414470
0.415440
0.415440
0.415440
0.415440
0.415440
0.415440
0.415440
0.415440
0.415440
0.415440
0.415440
0.415440
0.414470
0.413490
0.414470
0.415440
0.415440
0.417400
0.424240
0.434020
0.445750
0.465300
0.487780
0.512220
0.536660
0.558160
0.576740
0.590420
0.599220
0.605080
0.608020
0.608990
0.608990
0.607040
0.607040
0.607040
0.606060
0.603130
0.598240
0.591400
0.582600
0.571850
0.560120
0.546430
0.534700
0.524930
0.516130
0.508310
0.504400
0.502440
0.500490
0.500490
0.498530
0.496580
0.494620
0.491690
0.489740
0.485830
0.480940
0.477030
0.472140
0.467250
0.462370
0.457480
0.453570
0.448680
0.445750
0.442820
0.439880
0.437930
0.435970
0.432060
0.428150
0.424240
0.418380
0.414470
0.412510
0.410560
0.409580
0.410560
0.409580
0.409580
0.409580
0.410560
0.410560
0.410560
0.410560
0.410560
0.410560
0.409580
0.407620
0.406650
0.405670
0.404690
0.403710
0.404690
0.404690
0.405670
0.407620
0.410560
0.414470
0.421310
0.432060
0.446730
0.464320
0.483870
0.502440
0.519060
0.537630
0.555230
0.569890
0.580650
0.587490
0.591400
0.593350
0.594330
0.594330
0.593350
0.590420
0.587490
0.583580
0.578690
0.571850
0.562070
0.550340
0.537630
0.523950
0.513200
0.505380
0.498530
0.491690
0.486800
0.482890
0.480940
0.479960
0.479960
0.479960
0.478010
0.475070
0.471160
0.467250
0.461390
0.456500
0.450640
0.445750
0.441840
0.437930
0.434020
0.430110
0.427170
0.423260
0.418380
0.415440
0.412510
0.410560
0.410560
0.410560
0.410560
0.410560
0.409580
0.408600
0.408600
0.407620
0.406650
0.404690
0.403710
0.401760
0.400780
0.402740
0.404690
0.405670
0.406650
0.407620
0.406650
0.405670
0.402740
0.399800
0.397850
0.394920
0.392960
0.391980
0.393940
0.395890
0.398830
0.402740
0.409580
0.420330
0.435000
0.452590
0.472140
0.492670
0.512220
0.529810
0.543500
0.554250
0.563050
0.570870
0.576740
0.580650
0.583580
0.584560
0.582600
0.580650
0.577710
0.572830
0.565980
0.558160
0.548390
0.536660
0.522970
0.510260
0.500490
0.492670
0.485830
0.480940
0.476050
0.472140
0.470190
0.469210
0.467250
0.464320
0.462370
0.458460
0.455520
0.451610
0.447700
0.443790
0.441840
0.439880
0.436950
0.435000
0.434020
0.431090
0.428150
0.423260
0.418380
0.414470
0.412510
0.411530
0.411530
0.410560
0.410560
0.410560
0.410560
0.410560
0.410560
0.410560
0.410560
0.409580
0.408600
0.405670
0.403710
0.403710
0.403710
0.403710
0.404690
0.404690
0.403710
0.402740
0.399800
0.397850
0.395890
0.395890
0.394920
0.396870
0.399800
0.405670
0.413490
0.423260
0.434020
0.449660
0.469210
0.489740
0.508310
0.524930
0.540570
0.554250
0.566960
0.575760
0.581620
0.585530
0.586510
0.585530
0.583580
0.580650
0.575760
0.568910
0.561090
0.551320
0.540570
0.526880
0.516130
0.506350
0.498530
0.492670
0.486800
0.480940
0.476050
0.471160
0.468230
0.464320
0.460410
0.455520
0.450640
0.445750
0.440860
0.436950
0.433040
0.430110
0.426200
0.422290
0.418380
0.416420
0.414470
0.413490
0.412510
0.411530
0.411530
0.410560
0.410560
0.410560
0.410560
0.410560
0.410560
0.410560
0.410560
0.410560
0.409580
0.407620
0.405670
0.403710
0.402740
0.403710
0.404690
0.404690
0.405670
0.407620
0.409580
0.409580
0.409580
0.408600
0.407620
0.406650
0.405670
0.405670
0.405670
0.408600
0.413490
0.421310
0.434020
0.451610
0.473120
0.496580
0.520040
0.541540
0.562070
0.575760
0.586510
0.596290
0.604110
0.610950
0.615840
0.618770
0.619750
0.619750
0.617790
0.612900
0.608020
0.601170
0.594330
0.585530
0.574780
0.562070
0.548390
0.535680
0.524930
0.515150
0.508310
0.504400
0.502440
0.499510
0.497560
0.495600
0.493650
0.491690
0.490710
0.488760
0.486800
0.485830
0.483870
0.480940
0.476050
0.472140
0.468230
0.464320
0.460410
0.456500
0.453570
0.449660
0.445750
0.440860
0.435970
0.431090
0.427170
0.422290
0.418380
0.416420
0.414470
0.414470
0.413490
0.413490
0.413490
0.413490
0.412510
0.411530
0.409580
0.408600
0.406650
0.406650
0.406650
0.406650
0.407620
0.407620
0.407620
0.405670
0.404690
0.405670
0.407620
0.409580
0.411530
0.415440
0.422290
0.434020
0.449660
0.468230
0.487780
0.508310
0.527860
0.546430
0.562070
0.575760
0.584560
0.592380
0.597260
0.599220
0.599220
0.596290
0.593350
0.590420
0.586510
0.580650
0.573800
0.565980
0.556210
0.544480
0.531770
0.520040
0.509290
0.500490
0.493650
0.486800
0.482890
0.479960
0.478980
0.478010
0.478010
0.478010
0.478010
0.477030
0.475070
0.473120
0.469210
0.465300
0.461390
0.456500
0.451610
0.445750
0.439880
0.434020
0.429130
0.425220
0.421310
0.418380
0.415440
0.412510
0.411530
0.410560
0.409580
0.409580
0.409580
0.409580
0.409580
0.409580
0.409580
0.410560
0.409580
0.409580
0.410560
0.410560
0.410560
0.410560
0.409580
0.408600
0.405670
0.403710
0.401760
0.400780
0.398830
0.396870
0.395890
0.396870
0.398830
0.401760
0.406650
0.412510
0.422290
0.435970
0.452590
0.469210
0.485830
0.504400
0.522970
0.540570
0.555230
0.565980
0.573800
0.578690
0.582600
0.583580
0.582600
0.580650
0.577710
0.575760
0.570870
0.565000
0.556210
0.545450
0.534700
0.522970
0.512220
0.503420
0.496580
0.489740
0.484850
0.478980
0.474100
0.471160
0.470190
0.469210
0.469210
0.467250
0.464320
0.461390
0.456500
0.451610
0.446730
0.441840
0.436950
0.432060
0.429130
0.425220
0.420330
0.417400
0.414470
0.412510
0.410560
0.408600
0.407620
0.406650
0.405670
0.405670
0.404690
0.403710
0.403710
0.404690
0.405670
0.406650
0.406650
0.406650
0.406650
0.405670
0.403710
0.401760
0.399800
0.396870
0.394920
0.393940
0.391980
0.391010
0.389050
0.388070
0.386120
0.385140
0.386120
0.387100
0.391010
0.397850
0.407620
0.419350
0.435970
0.455520
0.475070
0.493650
0.510260
0.523950
0.534700
0.543500
0.551320
0.557180
0.561090
0.563050
0.563050
0.561090
0.558160
0.553270
0.547410
0.539590
0.531770
0.523950
0.515150
0.505380
0.495600
0.485830
0.478980
0.472140
0.466280
0.461390
0.458460
0.454550
0.453570
0.452590
0.452590
0.451610
0.451610
0.450640
0.448680
0.446730
0.444770
0.440860
0.437930
0.435000
0.431090
0.428150
0.424240
0.420330
0.415440
0.411530
0.409580
0.408600
0.407620
0.407620
0.407620
0.406650
0.405670
0.404690
0.404690
0.404690
0.404690
0.404690
0.404690
0.404690
0.404690
0.405670
0.406650
0.406650
0.406650
0.406650
0.406650
0.406650
0.404690
0.402740
0.402740
0.402740
0.403710
0.405670
0.407620
0.417400
0.429130
0.439880
0.455520
0.472140
0.487780
0.505380
0.523950
0.543500
0.562070
0.576740
0.588470
0.597260
0.603130
0.606060
0.607040
0.606060
0.604110
0.601170
0.596290
0.591400
0.586510
0.581620
0.574780
0.566960
0.557180
0.546430
0.536660
0.526880
0.519060
0.511240
0.504400
0.498530
0.494620
0.492670
0.491690
0.491690
0.491690
0.490710
0.488760
0.485830
0.481920
0.478010
0.474100
0.470190
0.466280
0.463340
0.459430
0.455520
0.450640
0.445750
0.440860
0.435970
0.432060
0.430110
0.428150
0.426200
0.424240
0.422290
0.419350
0.416420
0.413490
0.410560
0.408600
0.407620
0.407620
0.407620
0.406650
0.404690
0.403710
0.402740
0.401760
0.402740
0.403710
0.404690
0.403710
0.402740
0.402740
0.401760
0.401760
0.402740
0.404690
0.409580
0.421310
0.431090
0.440860
0.461390
0.486800
0.509290
0.528840
0.543500
0.555230
0.565980
0.574780
0.581620
0.585530
0.587490
0.588470
0.588470
0.587490
0.583580
0.579670
0.573800
0.567940
0.560120
0.550340
0.538610
0.524930
0.512220
0.501470
0.494620
0.489740
0.487780
0.486800
0.485830
0.484850
0.482890
0.479960
0.476050
0.472140
0.468230
0.464320
0.461390
0.458460
0.457480
0.455520
0.451610
0.448680
0.444770
0.440860
0.435970
0.431090
0.425220
0.420330
0.415440
0.412510
0.411530
0.410560
0.409580
0.408600
0.408600
0.408600
0.406650
0.405670
0.404690
0.404690
0.404690
0.404690
0.406650
0.407620
0.408600
0.408600
0.407620
0.407620
0.406650
0.405670
0.403710
0.401760
0.400780
0.398830
0.397850
0.396870
0.396870
0.398830
0.403710
0.409580
0.416420
0.429130
0.444770
0.464320
0.483870
0.502440
0.520040
0.534700
0.546430
0.556210
0.565000
0.570870
0.573800
0.577710
0.579670
0.579670
0.578690
0.576740
0.572830
0.566960
0.559140
0.549360
0.538610
0.526880
0.517110
0.509290
0.501470
0.495600
0.489740
0.485830
0.482890
0.479960
0.478010
0.475070
0.472140
0.469210
0.467250
0.465300
0.461390
0.458460
0.454550
0.451610
0.447700
0.443790
0.440860
0.436950
0.433040
0.430110
0.427170
0.425220
0.422290
0.419350
0.416420
0.413490
0.410560
0.408600
0.405670
0.403710
0.402740
0.403710
0.403710
0.404690
0.406650
0.407620
0.406650
0.406650
0.406650
0.405670
0.406650
0.407620
0.407620
0.407620
0.406650
0.404690
0.402740
0.401760
0.399800
0.396870
0.395890
0.396870
0.401760
0.408600
0.420330
0.434020
0.451610
0.471160
0.487780
0.501470
0.516130
0.529810
0.541540
0.550340
0.555230
0.560120
0.563050
0.565980
0.565980
0.565000
0.563050
0.560120
0.555230
0.548390
0.539590
0.529810
0.520040
0.509290
0.501470
0.493650
0.486800
0.480940
0.476050
0.473120
0.471160
0.470190
0.469210
0.467250
0.465300
0.463340
0.461390
0.459430
0.457480
0.454550
0.451610
0.448680
0.445750
0.442820
0.439880
0.436950
0.433040
0.428150
0.425220
0.421310
0.417400
0.414470
0.413490
0.412510
0.411530
0.411530
0.412510
0.412510
0.412510
0.412510
0.411530
0.411530
0.411530
0.411530
0.412510
0.412510
0.412510
0.412510
0.411530
0.411530
0.410560
0.410560
0.409580
0.407620
0.406650
0.405670
0.406650
0.408600
0.412510
0.417400
0.426200
0.439880
0.457480
0.478980
0.501470
0.522970
0.543500
0.561090
0.575760
0.586510
0.595310
0.601170
0.605080
0.606060
0.606060
0.606060
0.606060
0.605080
0.601170
0.597260
0.591400
0.584560
0.576740
0.567940
0.558160
0.549360
0.540570
0.531770
0.522970
0.515150
0.507330
0.502440
0.499510
0.498530
0.497560
0.496580
0.494620
0.492670
0.490710
0.486800
0.482890
0.479960
0.476050
0.473120
0.470190
0.467250
0.464320
0.460410
0.457480
0.454550
0.451610
0.447700
0.442820
0.439880
0.436950
0.434020
0.432060
0.430110
0.427170
0.424240
0.422290
0.420330
0.417400
0.415440
0.413490
0.413490
0.412510
0.410560
0.410560
0.409580
0.408600
0.409580
0.409580
0.408600
0.408600
0.408600
0.407620
0.407620
0.407620
0.409580
0.412510
0.418380
0.428150
0.441840
0.460410
0.480940
0.499510
0.516130
0.534700
0.553270
0.569890
0.582600
0.591400
0.596290
0.598240
0.599220
0.598240
0.597260
0.594330
0.592380
0.588470
0.584560
0.580650
0.576740
0.569890
0.563050
0.555230
0.546430
0.538610
0.529810
0.521990
0.514170
0.508310
0.504400
0.500490
0.497560
0.496580
0.496580
0.495600
0.495600
0.495600
0.495600
0.495600
0.494620
0.493650
0.493650
0.493650
0.492670
0.492670
0.492670
0.491690
0.489740
0.488760
0.487780
0.487780
0.487780
0.487780
0.487780
0.487780
0.487780
0.487780
0.487780
0.487780
0.487780
0.487780
0.487780
0.485830
0.483870
0.482890
0.481920
0.481920
0.481920
0.481920
0.481920
0.481920
0.481920
0.480940
0.478980
0.477030
0.474100
0.472140
0.471160
0.472140
0.475070
0.480940
0.490710
0.501470
0.515150
0.530790
0.548390
0.565000
0.578690
0.591400
0.601170
0.608020
0.611930
0.614860
0.615840
0.616810
0.616810
0.616810
0.613880
0.609970
0.606060
0.599220
0.591400
0.583580
0.574780
0.564030
0.552300
0.542520
0.533720
0.525900
0.521020
0.517110
0.515150
0.513200
0.510260
0.507330
0.505380
0.502440
0.499510
0.497560
0.495600
0.492670
0.489740
0.486800
0.484850
0.481920
0.479960
0.479960
0.478980
0.478980
0.478980
0.478010
0.477030
0.472140
0.469210
0.465300
0.456500
0.452590
0.449660
0.446730
0.444770
0.442820
0.440860
0.440860
0.440860
0.439880
0.439880
0.439880
0.437930
0.435000
0.430110
0.426200
0.422290
0.418380
0.414470
0.412510
0.410560
0.410560
0.411530
0.415440
0.422290
0.433040
0.445750
0.461390
0.477030
0.490710
0.506350
0.521020
0.535680
0.548390
0.558160
0.566960
0.573800
0.576740
0.576740
0.575760
0.573800
0.571850
0.568910
0.565980
0.563050
0.557180
0.551320
0.541540
0.530790
0.519060
0.509290
0.501470
0.495600
0.492670
0.491690
0.490710
0.489740
0.489740
0.488760
0.486800
0.483870
0.478980
0.476050
0.475070
0.473120
0.470190
0.468230
0.466280
0.463340
0.460410
0.458460
0.457480
0.454550
0.453570
0.450640
0.448680
0.446730
0.443790
0.441840
0.439880
0.436950
0.435970
0.435000
0.434020
0.428150
0.421310
0.417400
0.414470
0.411530
0.409580
0.407620
0.405670
0.402740
0.399800
0.396870
0.394920
0.391980
0.390030
0.389050
0.389050
0.390030
0.391980
0.396870
0.405670
0.418380
0.435970
0.455520
0.477030
0.499510
0.519060
0.537630
0.553270
0.565000
0.572830
0.577710
0.581620
0.583580
0.584560
0.585530
0.584560
0.582600
0.578690
0.573800
0.567940
0.560120
0.553270
0.545450
0.536660
0.524930
0.514170
0.503420
0.494620
0.488760
0.485830
0.483870
0.482890
0.482890
0.481920
0.479960
0.478010
0.477030
0.474100
0.473120
0.471160
0.469210
0.467250
0.465300
0.463340
0.460410
0.457480
0.455520
0.453570
0.450640
0.448680
0.445750
0.442820
0.440860
0.437930
0.435970
0.433040
0.432060
0.431090
0.431090
0.431090
0.431090
0.431090
0.431090
0.431090
0.431090
0.431090
0.430110
0.428150
0.426200
0.425220
0.425220
0.425220
0.425220
0.425220
0.425220
0.425220
0.425220
0.425220
0.425220
0.425220
0.425220
0.425220
0.425220
0.425220
0.425220
0.429130
0.435970
0.447700
0.462370
0.478980
0.497560
0.518080
0.537630
0.554250
0.567940
0.575760
0.580650
0.580650
0.579670
0.575760
0.569890
0.563050
0.555230
0.546430
0.535680
0.524930
0.514170
0.504400
0.495600
0.488760
0.483870
0.481920
0.480940
0.480940
0.481920
0.481920
0.482890
0.483870
0.482890
0.482890
0.482890
0.482890
0.482890
0.482890
0.482890
0.482890
0.482890
0.482890
0.482890
0.482890
0.482890
0.483870
0.484850
0.483870
0.482890
0.482890
0.482890
0.482890
0.482890
0.482890
0.482890
0.482890
0.482890
0.482890
0.482890
0.482890
0.482890
0.482890
0.482890
0.482890
0.482890
0.482890
0.482890
0.482890
0.482890
0.482890
0.482890
0.482890
0.482890
0.482890
0.482890
0.482890
0.482890
0.482890
0.482890
0.482890
0.482890
0.482890
0.482890
0.482890
0.482890
0.482890
0.482890
0.482890
0.482890
0.482890
0.482890
0.482890
0.482890
0.482890
0.482890
0.482890
0.482890
0.482890
0.482890
0.482890
0.482890
0.482890
0.482890
0.482890
0.482890
0.482890
0.482890
0.482890
0.481920
0.480940
0.479960
0.479960
0.478980
0.477030
0.475070
0.475070
0.474100
0.474100
0.474100
0.474100
0.474100
0.474100
0.474100
0.474100
0.474100
0.474100
0.472140
0.470190
0.469210
0.468230
0.468230
0.468230
0.468230
0.468230
0.468230
0.467250
0.464320
0.461390
0.457480
0.453570
0.452590
0.451610
0.450640
0.449660
0.446730
0.445750
0.445750
0.445750
0.443790
0.441840
0.441840
0.442820
0.440860
0.438910
0.436950
0.435970
0.435000
0.435000
0.435000
0.435000
0.435000
0.435000
0.435000
0.435000
0.434020
0.432060
0.430110
0.429130
0.428150
0.428150
0.427170
0.425220
0.423260
0.422290
0.420330
0.418380
0.416420
0.415440
0.412510
0.410560
0.409580
0.409580
0.409580
0.409580
0.409580
0.409580
0.411530
0.411530
0.411530
0.412510
0.411530
0.410560
0.409580
0.408600
0.406650
0.404690
0.403710
0.402740
0.402740
0.402740
0.402740
0.402740
0.402740
0.402740
0.402740
0.402740
0.402740
0.402740
0.402740
0.402740
0.402740
0.402740
0.402740
0.402740
0.402740
0.402740
0.402740
0.402740
0.402740
0.402740
0.402740
0.402740
0.402740
0.400780
0.398830
0.397850
0.396870
0.396870
0.396870
0.396870
0.396870
0.396870
0.396870
0.396870
0.396870
0.396870
0.396870
0.396870
0.396870
0.396870
0.397850
0.398830
0.398830
0.398830
0.399800
0.399800
0.399800
0.399800
0.399800
0.399800
0.399800
0.399800
0.399800
0.399800
0.399800
0.399800
0.401760
0.403710
0.404690
0.405670
0.405670
0.405670
0.405670
0.405670
0.405670
0.405670
0.405670
0.405670
0.405670
0.405670
0.405670
0.405670
0.405670
0.405670
0.405670
0.405670
0.405670
0.405670
0.405670
0.405670
0.405670
0.406650
0.408600
0.410560
0.411530
0.411530
0.412510
0.412510
0.412510
0.412510
0.412510
0.412510
0.412510
0.412510
0.412510
0.412510
0.412510
0.412510
0.412510
0.412510
0.412510
0.411530
0.410560
0.409580
0.409580
0.409580
0.409580
0.409580
0.411530
0.413490
0.416420
0.417400
0.418380
0.418380
0.418380
0.418380
0.418380
0.418380
0.418380
0.418380
0.418380
0.418380
0.418380
0.418380
0.418380
0.419350
0.421310
0.423260
0.424240
0.424240
0.425220
0.425220
0.425220
0.425220
0.425220
0.426200
0.429130
0.432060
0.435000
0.438910
0.441840
0.442820
0.443790
0.443790
0.443790
0.443790
0.443790
0.443790
0.443790
0.443790
0.443790
0.443790
0.445750
0.448680
0.451610
0.455520
0.458460
0.460410
0.462370
0.462370
0.462370
0.463340
0.463340
0.463340
0.463340
0.463340
0.463340
0.463340
0.465300
0.467250
0.468230
0.470190
0.472140
0.474100
0.476050
0.478980
0.481920
0.485830
0.488760
0.491690
0.493650
0.493650
0.494620
0.494620
0.494620
0.494620
0.494620
0.494620
0.495600
0.495600
0.496580
0.496580
0.495600
0.495600
0.496580
0.495600
0.495600
0.494620
0.494620
0.494620
0.494620
0.494620
0.495600
0.496580
0.496580
0.495600
0.510260
0.532750
0.543500
0.549360
0.551320
0.553270
0.553270
0.552300
0.551320
0.551320
0.551320
0.551320
0.551320
0.553270
0.554250
0.555230
0.555230
0.554250
0.554250
0.554250
0.554250
0.554250
0.554250
0.554250
0.554250
0.554250
0.554250
0.554250
0.553270
0.552300
0.551320
0.551320
0.551320
0.551320
0.551320
0.551320
0.551320
0.551320
0.551320
0.551320
0.551320
0.551320
0.551320
0.551320
0.551320
0.551320
0.551320
0.551320
0.551320
0.551320
0.551320
0.551320
0.551320
0.551320
0.551320
0.551320
0.551320
0.551320
0.551320
0.551320
0.551320
0.553270
0.554250
0.554250
0.554250
0.554250
0.554250
0.554250
0.554250
0.554250
0.554250
0.554250
0.554250
0.554250
0.554250
0.554250
0.554250
0.554250
0.554250
0.554250
0.554250
0.554250
0.554250
0.554250
0.554250
0.554250
0.554250
0.554250
0.554250
0.554250
0.554250
0.554250
0.554250
0.555230
0.556210
0.555230
0.555230
0.554250
0.554250
0.554250
0.554250
0.554250
0.554250
0.554250
0.554250
0.554250
0.553270
0.552300
0.551320
0.551320
0.551320
0.551320
0.551320
0.553270
0.554250
0.554250
0.554250
0.554250
0.553270
0.552300
0.551320
0.551320
0.551320
0.551320
0.551320
0.551320
0.551320
0.553270
0.554250
0.554250
0.554250
0.554250
0.554250
0.554250
0.554250
0.554250
0.554250
0.554250
0.554250
0.554250
0.554250
0.554250
0.554250
0.554250
0.554250
0.554250
0.554250
0.553270
0.552300
0.551320
0.551320
0.551320
0.551320
0.551320
0.551320
0.551320
0.551320
0.551320
0.551320
0.551320
0.553270
