0.144530
0.156250
0.156250
0.160160
0.160160
0.195310
0.314450
0.429690
0.505860
0.410160
0.080078
0.025391
0.130860
0.156250
0.175780
0.179690
0.185550
0.189450
0.201170
0.205080
0.205080
0.210940
0.220700
0.220700
0.230470
0.234380
0.246090
0.255860
0.259770
0.265620
0.265620
0.275390
0.275390
0.275390
0.279300
0.279300
0.265620
0.246090
0.224610
0.205080
0.179690
0.166020
0.156250
0.150390
0.156250
0.169920
0.179690
0.189450
0.195310
0.201170
0.201170
0.205080
0.210940
0.214840
0.214840
0.220700
0.214840
0.214840
0.210940
0.214840
0.220700
0.250000
0.275390
0.285160
0.294920
0.335940
0.359380
0.349610
0.330080
0.291020
0.265620
0.275390
0.255860
0.205080
0.169920
0.156250
0.150390
0.140620
0.144530
0.134770
0.140620
0.144530
0.144530
0.144530
0.150390
0.175780
0.285160
0.416020
0.494140
0.505860
0.095703
0.019531
0.115230
0.134770
0.160160
0.166020
0.169920
0.185550
0.185550
0.189450
0.195310
0.205080
0.205080
0.214840
0.214840
0.230470
0.230470
0.234380
0.250000
0.255860
0.255860
0.259770
0.269530
0.275390
0.275390
0.269530
0.255860
0.246090
0.230470
0.201170
0.175780
0.160160
0.150390
0.150390
0.160160
0.175780
0.189450
0.195310
0.205080
0.201170
0.205080
0.210940
0.210940
0.214840
0.214840
0.214840
0.220700
0.224610
0.220700
0.224610
0.220700
0.250000
0.279300
0.291020
0.285160
0.345700
0.359380
0.371090
0.335940
0.294920
0.269530
0.279300
0.250000
0.201170
0.166020
0.160160
0.144530
0.144530
0.140620
0.144530
0.144530
0.150390
0.156250
0.150390
0.160160
0.175780
0.291020
0.419920
0.519530
0.439450
0.095703
0.041016
0.140620
0.144530
0.175780
0.169920
0.166020
0.166020
0.179690
0.185550
0.195310
0.195310
0.201170
0.205080
0.210940
0.214840
0.220700
0.224610
0.230470
0.234380
0.240230
0.250000
0.255860
0.259770
0.255860
0.259770
0.240230
0.230470
0.210940
0.195310
0.166020
0.150390
0.144530
0.144530
0.156250
0.179690
0.185550
0.195310
0.201170
0.201170
0.205080
0.205080
0.205080
0.205080
0.210940
0.210940
0.214840
0.214840
0.214840
0.224610
0.230470
0.255860
0.291020
0.291020
0.310550
0.349610
0.375000
0.359380
0.339840
0.300780
0.285160
0.300780
0.265620
0.210940
0.185550
0.179690
0.175780
0.160160
0.160160
0.169920
0.166020
0.160160
0.166020
0.169920
0.175780
0.210940
0.320310
0.455080
0.589840
0.500000
0.156250
0.121090
0.201170
0.185550
0.189450
0.189450
0.185550
0.189450
0.195310
0.201170
0.205080
0.205080
0.210940
0.214840
0.220700
0.230470
0.246090
0.234380
0.240230
0.250000
0.255860
0.255860
0.259770
0.265620
0.255860
0.255860
0.246090
0.224610
0.201170
0.175780
0.160160
0.140620
0.144530
0.144530
0.160160
0.179690
0.189450
0.201170
0.210940
0.224610
0.230470
0.230470
0.230470
0.234380
0.230470
0.234380
0.234380
0.234380
0.234380
0.240230
0.246090
0.269530
0.300780
0.300780
0.314450
0.355470
0.380860
0.365230
0.339840
0.300780
0.279300
0.294920
0.265620
0.224610
0.185550
0.179690
0.175780
0.169920
0.166020
0.160160
0.166020
0.166020
0.169920
0.166020
0.175780
0.205080
0.324220
0.464840
0.589840
0.470700
0.115230
0.085938
0.179690
0.175780
0.189450
0.185550
0.189450
0.195310
0.205080
0.210940
0.210940
0.224610
0.230470
0.230470
0.234380
0.246090
0.250000
0.259770
0.265620
0.275390
0.275390
0.275390
0.275390
0.285160
0.285160
0.279300
0.265620
0.255860
0.234380
0.210940
0.189450
0.179690
0.169920
0.175780
0.185550
0.205080
0.214840
0.224610
0.230470
0.230470
0.234380
0.234380
0.234380
0.234380
0.234380
0.234380
0.246090
0.246090
0.250000
0.250000
0.255860
0.269530
0.310550
0.320310
0.330080
0.359380
0.394530
0.400390
0.371090
0.339840
0.300780
0.310550
0.294920
0.246090
0.205080
0.185550
0.179690
0.169920
0.166020
0.169920
0.169920
0.175780
0.169920
0.179690
0.179690
0.201170
0.279300
0.419920
0.494140
0.535160
0.224610
0.050781
0.134770
0.160160
0.185550
0.195310
0.201170
0.205080
0.210940
0.214840
0.220700
0.230470
0.230470
0.234380
0.240230
0.246090
0.255860
0.259770
0.265620
0.265620
0.275390
0.275390
0.285160
0.291020
0.294920
0.285160
0.275390
0.259770
0.240230
0.224610
0.205080
0.179690
0.175780
0.175780
0.179690
0.189450
0.205080
0.214840
0.220700
0.224610
0.230470
0.230470
0.224610
0.224610
0.230470
0.230470
0.230470
0.230470
0.230470
0.234380
0.234380
0.250000
0.285160
0.304690
0.310550
0.339840
0.375000
0.384770
0.359380
0.335940
0.285160
0.275390
0.294920
0.246090
0.201170
0.179690
0.169920
0.160160
0.160160
0.156250
0.160160
0.156250
0.160160
0.166020
0.169920
0.175780
0.224610
0.365230
0.455080
0.519530
0.324220
0.041016
0.099609
0.144530
0.175780
0.195310
0.189450
0.205080
0.210940
0.214840
0.220700
0.224610
0.220700
0.220700
0.224610
0.240230
0.240230
0.250000
0.250000
0.255860
0.259770
0.269530
0.275390
0.275390
0.275390
0.275390
0.269530
0.255860
0.240230
0.224610
0.205080
0.179690
0.166020
0.160160
0.169920
0.175780
0.189450
0.195310
0.205080
0.214840
0.220700
0.220700
0.220700
0.214840
0.224610
0.224610
0.230470
0.230470
0.230470
0.230470
0.230470
0.230470
0.240230
0.279300
0.300780
0.304690
0.330080
0.365230
0.380860
0.359380
0.330080
0.279300
0.275390
0.294920
0.246090
0.205080
0.179690
0.166020
0.156250
0.156250
0.144530
0.156250
0.160160
0.156250
0.160160
0.160160
0.166020
0.214840
0.349610
0.449220
0.509770
0.330080
0.031250
0.089844
0.144530
0.169920
0.185550
0.185550
0.189450
0.189450
0.205080
0.205080
0.214840
0.220700
0.224610
0.230470
0.230470
0.240230
0.255860
0.255860
0.255860
0.265620
0.265620
0.275390
0.275390
0.279300
0.285160
0.275390
0.265620
0.246090
0.230470
0.205080
0.179690
0.166020
0.160160
0.160160
0.175780
0.195310
0.205080
0.214840
0.220700
0.220700
0.210940
0.220700
0.224610
0.224610
0.224610
0.230470
0.234380
0.230470
0.230470
0.230470
0.234380
0.230470
0.265620
0.291020
0.294920
0.314450
0.355470
0.371090
0.359380
0.339840
0.294920
0.275390
0.294920
0.259770
0.214840
0.179690
0.179690
0.166020
0.169920
0.166020
0.166020
0.160160
0.160160
0.160160
0.169920
0.166020
0.195310
0.320310
0.439450
0.550780
0.429690
0.095703
0.064453
0.169920
0.160160
0.179690
0.179690
0.185550
0.185550
0.189450
0.195310
0.195310
0.195310
0.205080
0.214840
0.214840
0.220700
0.230470
0.234380
0.234380
0.240230
0.246090
0.250000
0.255860
0.269530
0.255860
0.255860
0.246090
0.234380
0.210940
0.189450
0.166020
0.160160
0.144530
0.156250
0.166020
0.179690
0.201170
0.205080
0.210940
0.224610
0.220700
0.224610
0.230470
0.220700
0.230470
0.230470
0.230470
0.224610
0.230470
0.230470
0.230470
0.240230
0.265620
0.294920
0.300780
0.310550
0.349610
0.375000
0.380860
0.349610
0.304690
0.291020
0.300780
0.269530
0.230470
0.185550
0.179690
0.175780
0.169920
0.166020
0.160160
0.156250
0.150390
0.160160
0.166020
0.166020
0.189450
0.314450
0.445310
0.589840
0.509770
0.156250
0.105470
0.195310
0.169920
0.185550
0.179690
0.185550
0.179690
0.179690
0.189450
0.185550
0.195310
0.201170
0.205080
0.210940
0.214840
0.224610
0.230470
0.230470
0.246090
0.246090
0.255860
0.255860
0.255860
0.255860
0.250000
0.230470
0.220700
0.189450
0.179690
0.156250
0.134770
0.130860
0.134770
0.150390
0.160160
0.175780
0.189450
0.210940
0.214840
0.220700
0.220700
0.224610
0.220700
0.230470
0.230470
0.234380
0.234380
0.246090
0.246090
0.246090
0.246090
0.255860
0.285160
0.310550
0.310550
0.339840
0.375000
0.390620
0.365230
0.339840
0.294920
0.291020
0.304690
0.259770
0.214840
0.195310
0.185550
0.179690
0.175780
0.166020
0.166020
0.166020
0.175780
0.166020
0.169920
0.175780
0.255860
0.384770
0.480470
0.529300
0.300780
0.041016
0.121090
0.156250
0.175780
0.189450
0.195310
0.205080
0.205080
0.205080
0.214840
0.224610
0.230470
0.230470
0.230470
0.240230
0.246090
0.255860
0.265620
0.275390
0.275390
0.275390
0.275390
0.285160
0.291020
0.291020
0.275390
0.269530
0.255860
0.234380
0.214840
0.185550
0.169920
0.169920
0.175780
0.179690
0.195310
0.205080
0.220700
0.224610
0.230470
0.230470
0.230470
0.230470
0.234380
0.230470
0.234380
0.234380
0.240230
0.234380
0.240230
0.246090
0.240230
0.265620
0.300780
0.314450
0.310550
0.355470
0.380860
0.390620
0.365230
0.330080
0.285160
0.304690
0.279300
0.234380
0.201170
0.179690
0.166020
0.166020
0.160160
0.160160
0.160160
0.160160
0.160160
0.160160
0.166020
0.185550
0.279300
0.419920
0.494140
0.529300
0.166020
0.044922
0.134770
0.160160
0.189450
0.201170
0.201170
0.201170
0.205080
0.210940
0.224610
0.220700
0.230470
0.230470
0.246090
0.250000
0.255860
0.255860
0.265620
0.269530
0.275390
0.279300
0.285160
0.291020
0.279300
0.291020
0.275390
0.259770
0.246090
0.224610
0.201170
0.179690
0.166020
0.166020
0.175780
0.185550
0.195310
0.210940
0.214840
0.220700
0.220700
0.224610
0.224610
0.230470
0.230470
0.230470
0.224610
0.224610
0.224610
0.230470
0.230470
0.230470
0.230470
0.250000
0.291020
0.300780
0.310550
0.349610
0.380860
0.365230
0.345700
0.304690
0.275390
0.291020
0.265620
0.214840
0.179690
0.160160
0.160160
0.160160
0.156250
0.144530
0.144530
0.150390
0.150390
0.150390
0.160160
0.185550
0.294920
0.425780
0.505860
0.515620
0.099609
0.031250
0.134770
0.160160
0.179690
0.179690
0.185550
0.195310
0.195310
0.205080
0.205080
0.214840
0.210940
0.220700
0.224610
0.230470
0.234380
0.246090
0.250000
0.255860
0.255860
0.265620
0.275390
0.275390
0.279300
0.275390
0.265620
0.246090
0.230470
0.205080
0.185550
0.160160
0.156250
0.150390
0.160160
0.175780
0.185550
0.195310
0.205080
0.205080
0.210940
0.214840
0.210940
0.214840
0.210940
0.214840
0.210940
0.220700
0.220700
0.224610
0.224610
0.230470
0.230470
0.250000
0.291020
0.300780
0.304690
0.349610
0.371090
0.371090
0.335940
0.310550
0.275390
0.285160
0.259770
0.220700
0.185550
0.179690
0.166020
0.166020
0.160160
0.156250
0.160160
0.156250
0.160160
0.160160
0.160160
0.185550
0.291020
0.419920
0.494140
0.515620
0.125000
0.035156
0.150390
0.166020
0.195310
0.201170
0.195310
0.201170
0.210940
0.214840
0.210940
0.220700
0.220700
0.224610
0.230470
0.234380
0.240230
0.246090
0.250000
0.265620
0.269530
0.275390
0.269530
0.285160
0.285160
0.285160
0.275390
0.259770
0.240230
0.224610
0.195310
0.179690
0.166020
0.160160
0.166020
0.179690
0.195310
0.214840
0.224610
0.224610
0.224610
0.230470
0.230470
0.230470
0.230470
0.230470
0.234380
0.234380
0.234380
0.240230
0.250000
0.240230
0.246090
0.250000
0.279300
0.294920
0.300780
0.320310
0.359380
0.371090
0.345700
0.335940
0.279300
0.294920
0.279300
0.250000
0.210940
0.179690
0.175780
0.166020
0.160160
0.160160
0.166020
0.160160
0.160160
0.166020
0.166020
0.169920
0.234380
0.371090
0.474610
0.560550
0.339840
0.080078
0.150390
0.175780
0.179690
0.185550
0.195310
0.201170
0.189450
0.195310
0.210940
0.210940
0.220700
0.220700
0.224610
0.230470
0.230470
0.230470
0.240230
0.246090
0.255860
0.259770
0.265620
0.255860
0.265620
0.269530
0.269530
0.255860
0.234380
0.210940
0.189450
0.169920
0.166020
0.156250
0.160160
0.179690
0.195310
0.205080
0.210940
0.224610
0.230470
0.230470
0.230470
0.234380
0.230470
0.240230
0.234380
0.234380
0.234380
0.246090
0.240230
0.246090
0.240230
0.255860
0.275390
0.304690
0.310550
0.335940
0.371090
0.394530
0.365230
0.339840
0.294920
0.279300
0.300780
0.259770
0.220700
0.179690
0.179690
0.166020
0.166020
0.156250
0.160160
0.166020
0.169920
0.169920
0.175780
0.179690
0.234380
0.371090
0.490230
0.595700
0.384770
0.105470
0.169920
0.195310
0.169920
0.175780
0.175780
0.179690
0.179690
0.179690
0.189450
0.205080
0.201170
0.205080
0.205080
0.214840
0.214840
0.224610
0.230470
0.240230
0.240230
0.246090
0.246090
0.255860
0.246090
0.250000
0.240230
0.230470
0.210940
0.189450
0.175780
0.156250
0.134770
0.134770
0.134770
0.156250
0.175780
0.185550
0.205080
0.210940
0.214840
0.214840
0.220700
0.214840
0.220700
0.224610
0.230470
0.230470
0.224610
0.230470
0.234380
0.240230
0.234380
0.246090
0.269530
0.300780
0.300780
0.314450
0.349610
0.380860
0.359380
0.339840
0.294920
0.279300
0.300780
0.269530
0.224610
0.195310
0.179690
0.179690
0.169920
0.166020
0.160160
0.160160
0.166020
0.166020
0.166020
0.175780
0.214840
0.335940
0.455080
0.539060
0.410160
0.064453
0.041016
0.144530
0.160160
0.179690
0.185550
0.189450
0.195310
0.195310
0.205080
0.205080
0.205080
0.210940
0.214840
0.224610
0.230470
0.240230
0.246090
0.255860
0.255860
0.265620
0.269530
0.275390
0.275390
0.275390
0.265620
0.255860
0.240230
0.224610
0.205080
0.179690
0.166020
0.160160
0.156250
0.166020
0.179690
0.201170
0.205080
0.210940
0.220700
0.224610
0.220700
0.220700
0.214840
0.220700
0.224610
0.224610
0.224610
0.230470
0.230470
0.230470
0.224610
0.230470
0.265620
0.294920
0.300780
0.314450
0.355470
0.371090
0.359380
0.335940
0.291020
0.269530
0.285160
0.246090
0.201170
0.169920
0.160160
0.156250
0.160160
0.156250
0.150390
0.156250
0.150390
0.156250
0.160160
0.169920
0.205080
0.339840
0.449220
0.519530
0.380860
0.050781
0.025391
0.134770
0.156250
0.179690
0.185550
0.195310
0.189450
0.201170
0.195310
0.201170
0.205080
0.214840
0.224610
0.224610
0.230470
0.230470
0.234380
0.246090
0.255860
0.259770
0.269530
0.275390
0.279300
0.279300
0.275390
0.259770
0.250000
0.230470
0.210940
0.185550
0.169920
0.160160
0.166020
0.175780
0.185550
0.195310
0.205080
0.205080
0.210940
0.214840
0.210940
0.220700
0.224610
0.230470
0.224610
0.224610
0.230470
0.230470
0.230470
0.230470
0.230470
0.230470
0.240230
0.285160
0.300780
0.304690
0.330080
0.371090
0.384770
0.355470
0.335940
0.291020
0.300780
0.279300
0.240230
0.201170
0.179690
0.175780
0.169920
0.160160
0.166020
0.169920
0.166020
0.166020
0.169920
0.166020
0.179690
0.246090
0.394530
0.474610
0.519530
0.269530
0.035156
0.121090
0.156250
0.185550
0.201170
0.201170
0.205080
0.210940
0.210940
0.214840
0.220700
0.224610
0.230470
0.234380
0.240230
0.246090
0.250000
0.259770
0.259770
0.269530
0.275390
0.285160
0.294920
0.300780
0.291020
0.294920
0.279300
0.259770
0.246090
0.220700
0.201170
0.179690
0.166020
0.169920
0.179690
0.201170
0.210940
0.214840
0.224610
0.224610
0.230470
0.220700
0.224610
0.224610
0.230470
0.224610
0.224610
0.224610
0.230470
0.224610
0.230470
0.230470
0.240230
0.269530
0.300780
0.300780
0.314450
0.355470
0.380860
0.384770
0.345700
0.304690
0.279300
0.300780
0.259770
0.214840
0.179690
0.175780
0.166020
0.160160
0.150390
0.156250
0.144530
0.150390
0.156250
0.160160
0.160160
0.210940
0.330080
0.439450
0.519530
0.380860
0.054688
0.041016
0.140620
0.156250
0.179690
0.179690
0.185550
0.185550
0.195310
0.201170
0.205080
0.205080
0.205080
0.205080
0.214840
0.214840
0.230470
0.234380
0.246090
0.240230
0.250000
0.255860
0.259770
0.265620
0.265620
0.255860
0.255860
0.240230
0.220700
0.201170
0.175780
0.156250
0.144530
0.150390
0.156250
0.179690
0.185550
0.201170
0.205080
0.210940
0.214840
0.214840
0.210940
0.220700
0.214840
0.220700
0.214840
0.220700
0.224610
0.230470
0.230470
0.220700
0.224610
0.240230
0.285160
0.294920
0.294920
0.335940
0.365230
0.365230
0.330080
0.304690
0.269530
0.279300
0.259770
0.214840
0.179690
0.166020
0.156250
0.150390
0.156250
0.144530
0.150390
0.140620
0.144530
0.144530
0.144530
0.169920
0.269530
0.404300
0.525390
0.560550
0.166020
0.080078
0.179690
0.166020
0.175780
0.185550
0.179690
0.189450
0.195310
0.201170
0.195310
0.201170
0.205080
0.214840
0.224610
0.224610
0.230470
0.234380
0.240230
0.250000
0.250000
0.255860
0.265620
0.265620
0.265620
0.259770
0.265620
0.240230
0.220700
0.201170
0.179690
0.160160
0.156250
0.144530
0.160160
0.175780
0.195310
0.205080
0.220700
0.220700
0.224610
0.220700
0.220700
0.230470
0.230470
0.230470
0.230470
0.230470
0.230470
0.230470
0.230470
0.234380
0.230470
0.246090
0.275390
0.300780
0.294920
0.324220
0.359380
0.380860
0.359380
0.339840
0.291020
0.275390
0.294920
0.259770
0.214840
0.179690
0.175780
0.169920
0.156250
0.160160
0.156250
0.156250
0.160160
0.166020
0.169920
0.166020
0.214840
0.349610
0.470700
0.599610
0.429690
0.121090
0.169920
0.195310
0.179690
0.185550
0.185550
0.179690
0.179690
0.179690
0.185550
0.189450
0.195310
0.201170
0.205080
0.205080
0.210940
0.220700
0.230470
0.240230
0.240230
0.255860
0.255860
0.255860
0.255860
0.255860
0.246090
0.234380
0.224610
0.205080
0.179690
0.166020
0.140620
0.134770
0.134770
0.160160
0.179690
0.195310
0.205080
0.214840
0.224610
0.230470
0.230470
0.230470
0.230470
0.230470
0.240230
0.240230
0.246090
0.246090
0.246090
0.240230
0.246090
0.246090
0.269530
0.300780
0.314450
0.314450
0.345700
0.375000
0.384770
0.349610
0.324220
0.279300
0.300780
0.285160
0.240230
0.201170
0.179690
0.175780
0.166020
0.166020
0.166020
0.166020
0.166020
0.166020
0.166020
0.169920
0.185550
0.269530
0.410160
0.509770
0.550780
0.220700
0.050781
0.140620
0.160160
0.185550
0.195310
0.189450
0.201170
0.201170
0.205080
0.205080
0.210940
0.214840
0.220700
0.220700
0.230470
0.230470
0.246090
0.250000
0.259770
0.269530
0.275390
0.275390
0.279300
0.275390
0.275390
0.269530
0.265620
0.250000
0.230470
0.210940
0.189450
0.175780
0.169920
0.175780
0.179690
0.201170
0.210940
0.214840
0.220700
0.230470
0.224610
0.230470
0.224610
0.230470
0.224610
0.230470
0.230470
0.230470
0.230470
0.234380
0.230470
0.230470
0.234380
0.255860
0.285160
0.300780
0.300780
0.345700
0.371090
0.375000
0.345700
0.320310
0.275390
0.291020
0.269530
0.224610
0.195310
0.169920
0.169920
0.160160
0.160160
0.160160
0.156250
0.150390
0.160160
0.160160
0.166020
0.189450
0.285160
0.416020
0.494140
0.525390
0.185550
0.041016
0.134770
0.160160
0.179690
0.195310
0.195310
0.201170
0.195310
0.205080
0.205080
0.214840
0.214840
0.230470
0.230470
0.240230
0.240230
0.255860
0.255860
0.259770
0.269530
0.279300
0.285160
0.285160
0.291020
0.291020
0.279300
0.269530
0.255860
0.234380
0.214840
0.189450
0.179690
0.166020
0.175780
0.179690
0.205080
0.210940
0.220700
0.220700
0.230470
0.230470
0.234380
0.234380
0.240230
0.234380
0.240230
0.234380
0.240230
0.234380
0.240230
0.246090
0.234380
0.246090
0.269530
0.304690
0.304690
0.330080
0.365230
0.390620
0.371090
0.345700
0.300780
0.279300
0.300780
0.265620
0.214840
0.185550
0.179690
0.175780
0.166020
0.166020
0.169920
0.166020
0.166020
0.169920
0.175780
0.169920
0.214840
0.345700
0.455080
0.535160
0.425780
0.080078
0.044922
0.160160
0.179690
0.205080
0.214840
0.210940
0.220700
0.220700
0.224610
0.224610
0.234380
0.240230
0.246090
0.250000
0.255860
0.259770
0.269530
0.265620
0.275390
0.279300
0.291020
0.300780
0.294920
0.300780
0.294920
0.285160
0.269530
0.250000
0.230470
0.214840
0.189450
0.185550
0.179690
0.179690
0.189450
0.210940
0.214840
0.224610
0.224610
0.230470
0.230470
0.230470
0.234380
0.240230
0.246090
0.240230
0.246090
0.234380
0.246090
0.234380
0.246090
0.240230
0.259770
0.294920
0.310550
0.314450
0.355470
0.380860
0.390620
0.345700
0.320310
0.279300
0.300780
0.275390
0.234380
0.195310
0.179690
0.169920
0.169920
0.166020
0.160160
0.169920
0.169920
0.166020
0.166020
0.169920
0.195310
0.294920
0.419920
0.500000
0.525390
0.134770
0.041016
0.150390
0.160160
0.195310
0.189450
0.201170
0.201170
0.205080
0.210940
0.214840
0.220700
0.224610
0.224610
0.230470
0.230470
0.234380
0.246090
0.246090
0.255860
0.269530
0.265620
0.275390
0.285160
0.285160
0.279300
0.269530
0.259770
0.240230
0.220700
0.195310
0.179690
0.160160
0.160160
0.166020
0.185550
0.195310
0.205080
0.214840
0.220700
0.224610
0.220700
0.224610
0.224610
0.230470
0.220700
0.220700
0.214840
0.224610
0.220700
0.224610
0.224610
0.224610
0.224610
0.259770
0.285160
0.291020
0.304690
0.339840
0.365230
0.349610
0.335940
0.291020
0.275390
0.291020
0.259770
0.210940
0.169920
0.160160
0.160160
0.156250
0.156250
0.156250
0.150390
0.144530
0.156250
0.150390
0.160160
0.201170
0.335940
0.445310
0.560550
0.419920
0.095703
0.085938
0.179690
0.169920
0.179690
0.179690
0.179690
0.189450
0.189450
0.185550
0.195310
0.205080
0.205080
0.214840
0.224610
0.230470
0.230470
0.246090
0.250000
0.255860
0.255860
0.255860
0.255860
0.269530
0.265620
0.275390
0.255860
0.234380
0.214840
0.195310
0.175780
0.160160
0.144530
0.144530
0.160160
0.169920
0.189450
0.205080
0.220700
0.220700
0.230470
0.230470
0.224610
0.220700
0.230470
0.230470
0.234380
0.230470
0.234380
0.234380
0.246090
0.246090
0.250000
0.255860
0.294920
0.310550
0.310550
0.345700
0.371090
0.375000
0.345700
0.324220
0.275390
0.300780
0.279300
0.246090
0.201170
0.179690
0.175780
0.169920
0.166020
0.166020
0.166020
0.169920
0.166020
0.169920
0.160160
0.185550
0.269530
0.404300
0.535160
0.595700
0.255860
0.121090
0.195310
0.179690
0.175780
0.179690
0.175780
0.179690
0.175780
0.175780
0.179690
0.185550
0.201170
0.201170
0.205080
0.205080
0.210940
0.220700
0.230470
0.230470
0.240230
0.234380
0.240230
0.250000
0.250000
0.255860
0.240230
0.220700
0.205080
0.179690
0.160160
0.140620
0.125000
0.121090
0.134770
0.150390
0.175780
0.185550
0.195310
0.205080
0.205080
0.214840
0.220700
0.224610
0.224610
0.230470
0.230470
0.230470
0.230470
0.234380
0.234380
0.240230
0.246090
0.240230
0.255860
0.291020
0.300780
0.304690
0.339840
0.365230
0.371090
0.335940
0.314450
0.269530
0.294920
0.269530
0.234380
0.195310
0.175780
0.169920
0.166020
0.160160
0.156250
0.150390
0.156250
0.150390
0.156250
0.160160
0.175780
0.265620
0.400390
0.484380
0.529300
0.210940
0.031250
0.121090
0.144530
0.175780
0.179690
0.179690
0.189450
0.195310
0.189450
0.201170
0.205080
0.205080
0.214840
0.220700
0.230470
0.230470
0.234380
0.246090
0.250000
0.255860
0.259770
0.259770
0.269530
0.269530
0.275390
0.265620
0.255860
0.234380
0.220700
0.201170
0.175780
0.160160
0.156250
0.150390
0.160160
0.179690
0.195310
0.201170
0.205080
0.205080
0.205080
0.210940
0.214840
0.214840
0.214840
0.220700
0.214840
0.220700
0.214840
0.220700
0.224610
0.230470
0.220700
0.234380
0.269530
0.300780
0.300780
0.324220
0.355470
0.375000
0.349610
0.330080
0.279300
0.275390
0.291020
0.250000
0.201170
0.175780
0.160160
0.160160
0.150390
0.140620
0.144530
0.144530
0.156250
0.156250
0.156250
0.160160
0.210940
0.345700
0.445310
0.505860
0.330080
0.019531
0.080078
0.134770
0.166020
0.179690
0.189450
0.195310
0.201170
0.195310
0.205080
0.210940
0.214840
0.220700
0.224610
0.230470
0.234380
0.246090
0.250000
0.255860
0.255860
0.265620
0.269530
0.275390
0.275390
0.275390
0.269530
0.259770
0.246090
0.230470
0.205080
0.189450
0.166020
0.160160
0.160160
0.160160
0.175780
0.189450
0.195310
0.205080
0.205080
0.214840
0.220700
0.214840
0.220700
0.214840
0.220700
0.214840
0.214840
0.220700
0.224610
0.220700
0.220700
0.220700
0.224610
0.250000
0.285160
0.294920
0.304690
0.339840
0.359380
0.365230
0.324220
0.285160
0.259770
0.279300
0.246090
0.205080
0.175780
0.160160
0.160160
0.150390
0.140620
0.144530
0.140620
0.150390
0.150390
0.160160
0.160160
0.195310
0.314450
0.429690
0.500000
0.410160
0.070312
0.019531
0.134770
0.160160
0.185550
0.195310
0.201170
0.205080
0.205080
0.210940
0.214840
0.220700
0.224610
0.224610
0.230470
0.234380
0.246090
0.250000
0.255860
0.265620
0.275390
0.275390
0.279300
0.279300
0.279300
0.279300
0.275390
0.255860
0.234380
0.214840
0.189450
0.175780
0.166020
0.160160
0.166020
0.185550
0.195310
0.210940
0.214840
0.220700
0.214840
0.224610
0.220700
0.224610
0.220700
0.224610
0.224610
0.230470
0.230470
0.230470
0.230470
0.230470
0.230470
0.230470
0.234380
0.269530
0.300780
0.304690
0.324220
0.365230
0.384770
0.390620
0.349610
0.304690
0.279300
0.300780
0.265620
0.214840
0.179690
0.169920
0.169920
0.160160
0.160160
0.150390
0.156250
0.156250
0.150390
0.150390
0.160160
0.195310
0.320310
0.429690
0.515620
0.410160
0.076172
0.041016
0.156250
0.169920
0.179690
0.185550
0.179690
0.201170
0.205080
0.210940
0.210940
0.214840
0.214840
0.224610
0.220700
0.230470
0.230470
0.234380
0.234380
0.246090
0.246090
0.255860
0.269530
0.275390
0.275390
0.275390
0.259770
0.255860
0.230470
0.205080
0.179690
0.169920
0.160160
0.156250
0.166020
0.175780
0.189450
0.205080
0.220700
0.214840
0.220700
0.220700
0.224610
0.224610
0.230470
0.224610
0.230470
0.230470
0.234380
0.230470
0.234380
0.240230
0.230470
0.240230
0.255860
0.300780
0.300780
0.314450
0.345700
0.375000
0.380860
0.359380
0.330080
0.291020
0.300780
0.285160
0.234380
0.201170
0.179690
0.175780
0.166020
0.160160
0.160160
0.160160
0.166020
0.160160
0.160160
0.169920
0.189450
0.279300
0.425780
0.529300
0.580080
0.189450
0.095703
0.189450
0.195310
0.205080
0.205080
0.205080
0.205080
0.205080
0.210940
0.214840
0.220700
0.224610
0.230470
0.230470
0.230470
0.240230
0.246090
0.255860
0.259770
0.269530
0.275390
0.275390
0.275390
0.275390
0.269530
0.275390
0.246090
0.234380
0.210940
0.189450
0.169920
0.166020
0.156250
0.166020
0.179690
0.195310
0.205080
0.220700
0.224610
0.230470
0.224610
0.224610
0.230470
0.224610
0.230470
0.230470
0.234380
0.230470
0.240230
0.240230
0.246090
0.246090
0.250000
0.255860
0.291020
0.300780
0.300780
0.330080
0.365230
0.371090
0.345700
0.320310
0.275390
0.291020
0.275390
0.240230
0.201170
0.179690
0.175780
0.169920
0.169920
0.169920
0.169920
0.166020
0.169920
0.175780
0.169920
0.189450
0.269530
0.404300
0.505860
0.564450
0.255860
0.070312
0.150390
0.169920
0.189450
0.205080
0.205080
0.210940
0.214840
0.220700
0.224610
0.224610
0.230470
0.230470
0.240230
0.250000
0.255860
0.255860
0.259770
0.259770
0.275390
0.275390
0.291020
0.291020
0.294920
0.294920
0.291020
0.275390
0.255860
0.234380
0.214840
0.189450
0.175780
0.166020
0.169920
0.179690
0.195310
0.205080
0.214840
0.230470
0.230470
0.230470
0.230470
0.230470
0.230470
0.234380
0.234380
0.246090
0.246090
0.250000
0.255860
0.250000
0.246090
0.250000
0.246090
0.275390
0.304690
0.314450
0.324220
0.365230
0.390620
0.375000
0.355470
0.310550
0.285160
0.300780
0.275390
0.224610
0.201170
0.179690
0.175780
0.166020
0.169920
0.160160
0.160160
0.160160
0.166020
0.169920
0.179690
0.214840
0.349610
0.449220
0.529300
0.410160
0.076172
0.041016
0.160160
0.175780
0.201170
0.205080
0.201170
0.210940
0.220700
0.224610
0.220700
0.230470
0.230470
0.234380
0.246090
0.250000
0.250000
0.255860
0.259770
0.269530
0.275390
0.285160
0.291020
0.285160
0.300780
0.294920
0.275390
0.265620
0.246090
0.224610
0.201170
0.179690
0.169920
0.166020
0.179690
0.189450
0.205080
0.214840
0.224610
0.224610
0.230470
0.230470
0.230470
0.230470
0.230470
0.234380
0.246090
0.234380
0.240230
0.246090
0.240230
0.250000
0.246090
0.246090
0.259770
0.300780
0.304690
0.310550
0.349610
0.375000
0.380860
0.349610
0.324220
0.285160
0.300780
0.279300
0.234380
0.201170
0.179690
0.179690
0.169920
0.160160
0.160160
0.160160
0.160160
0.160160
0.160160
0.166020
0.185550
0.279300
0.416020
0.494140
0.519530
0.150390
0.031250
0.134770
0.160160
0.189450
0.205080
0.201170
0.205080
0.205080
0.214840
0.214840
0.220700
0.224610
0.230470
0.230470
0.234380
0.246090
0.255860
0.259770
0.269530
0.275390
0.279300
0.285160
0.291020
0.294920
0.291020
0.279300
0.265620
0.250000
0.230470
0.210940
0.179690
0.166020
0.160160
0.166020
0.179690
0.201170
0.205080
0.210940
0.214840
0.214840
0.214840
0.224610
0.224610
0.224610
0.230470
0.224610
0.224610
0.230470
0.230470
0.224610
0.230470
0.224610
0.230470
0.240230
0.269530
0.294920
0.300780
0.320310
0.359380
0.371090
0.349610
0.324220
0.279300
0.269530
0.285160
0.240230
0.201170
0.175780
0.166020
0.160160
0.156250
0.156250
0.156250
0.160160
0.156250
0.160160
0.156250
0.166020
0.214840
0.355470
0.449220
0.519530
0.320310
0.031250
0.095703
0.150390
0.175780
0.189450
0.185550
0.195310
0.201170
0.205080
0.205080
0.210940
0.210940
0.214840
0.224610
0.230470
0.234380
0.234380
0.246090
0.250000
0.259770
0.265620
0.269530
0.275390
0.279300
0.275390
0.275390
0.259770
0.255860
0.230470
0.210940
0.185550
0.166020
0.150390
0.156250
0.156250
0.169920
0.179690
0.195310
0.205080
0.210940
0.214840
0.210940
0.214840
0.214840
0.220700
0.214840
0.230470
0.230470
0.230470
0.220700
0.224610
0.220700
0.230470
0.224610
0.230470
0.269530
0.294920
0.300780
0.324220
0.355470
0.371090
0.345700
0.320310
0.279300
0.300780
0.291020
0.255860
0.205080
0.179690
0.179690
0.175780
0.166020
0.160160
0.156250
0.144530
0.156250
0.156250
0.160160
0.179690
0.259770
0.380860
0.484380
0.544920
0.269530
0.064453
0.150390
0.166020
0.179690
0.179690
0.179690
0.185550
0.185550
0.185550
0.185550
0.195310
0.201170
0.205080
0.210940
0.214840
0.220700
0.234380
0.230470
0.250000
0.255860
0.255860
0.255860
0.269530
0.269530
0.269530
0.265620
0.250000
0.230470
0.205080
0.185550
0.166020
0.156250
0.144530
0.150390
0.160160
0.179690
0.189450
0.210940
0.214840
0.224610
0.214840
0.224610
0.224610
0.224610
0.220700
0.224610
0.224610
0.224610
0.224610
0.230470
0.230470
0.230470
0.230470
0.230470
0.265620
0.300780
0.291020
0.310550
0.349610
0.371090
0.365230
0.339840
0.294920
0.279300
0.300780
0.255860
0.220700
0.185550
0.175780
0.166020
0.166020
0.160160
0.160160
0.160160
0.160160
0.160160
0.160160
0.166020
0.210940
0.330080
0.449220
0.574220
0.455080
0.121090
0.095703
0.185550
0.169920
0.179690
0.175780
0.169920
0.169920
0.179690
0.179690
0.189450
0.185550
0.189450
0.189450
0.201170
0.205080
0.210940
0.220700
0.224610
0.230470
0.234380
0.234380
0.240230
0.246090
0.246090
0.240230
0.230470
0.220700
0.205080
0.179690
0.160160
0.144530
0.134770
0.134770
0.150390
0.169920
0.179690
0.201170
0.205080
0.210940
0.214840
0.220700
0.224610
0.230470
0.224610
0.230470
0.230470
0.234380
0.234380
0.230470
0.246090
0.240230
0.246090
0.234380
0.259770
0.294920
0.304690
0.300780
0.349610
0.375000
0.384770
0.339840
0.314450
0.275390
0.285160
0.265620
0.224610
0.179690
0.169920
0.160160
0.160160
0.156250
0.150390
0.156250
0.150390
0.156250
0.156250
0.160160
0.189450
0.304690
0.425780
0.505860
0.515620
0.095703
0.019531
0.134770
0.156250
0.185550
0.185550
0.189450
0.189450
0.201170
0.201170
0.210940
0.214840
0.220700
0.224610
0.220700
0.230470
0.240230
0.246090
0.240230
0.255860
0.265620
0.275390
0.275390
0.279300
0.279300
0.279300
0.269530
0.259770
0.246090
0.224610
0.201170
0.179690
0.160160
0.160160
0.166020
0.179690
0.185550
0.205080
0.205080
0.214840
0.220700
0.220700
0.214840
0.214840
0.214840
0.220700
0.224610
0.220700
0.230470
0.230470
0.224610
0.224610
0.230470
0.230470
0.250000
0.279300
0.294920
0.300780
0.339840
0.371090
0.380860
0.345700
0.314450
0.275390
0.294920
0.269530
0.224610
0.185550
0.169920
0.160160
0.156250
0.156250
0.150390
0.160160
0.156250
0.156250
0.150390
0.160160
0.179690
0.275390
0.400390
0.484380
0.505860
0.144530
0.025391
0.115230
0.150390
0.179690
0.185550
0.185550
0.195310
0.195310
0.201170
0.205080
0.220700
0.220700
0.220700
0.230470
0.230470
0.240230
0.250000
0.255860
0.265620
0.269530
0.285160
0.294920
0.275390
0.275390
0.279300
0.269530
0.259770
0.246090
0.230470
0.201170
0.185550
0.169920
0.166020
0.169920
0.179690
0.195310
0.205080
0.210940
0.220700
0.224610
0.220700
0.224610
0.230470
0.230470
0.230470
0.230470
0.230470
0.230470
0.230470
0.234380
0.234380
0.234380
0.230470
0.250000
0.279300
0.304690
0.304690
0.339840
0.375000
0.390620
0.355470
0.330080
0.279300
0.300780
0.291020
0.246090
0.205080
0.179690
0.169920
0.160160
0.160160
0.156250
0.160160
0.160160
0.160160
0.160160
0.160160
0.175780
0.250000
0.390620
0.470700
0.509770
0.220700
0.025391
0.125000
0.156250
0.179690
0.195310
0.201170
0.205080
0.205080
0.214840
0.210940
0.224610
0.220700
0.230470
0.230470
0.246090
0.250000
0.255860
0.259770
0.265620
0.275390
0.275390
0.279300
0.285160
0.291020
0.294920
0.279300
0.275390
0.255860
0.230470
0.210940
0.185550
0.169920
0.169920
0.175780
0.179690
0.195310
0.205080
0.220700
0.220700
0.220700
0.220700
0.220700
0.224610
0.224610
0.224610
0.230470
0.230470
0.230470
0.230470
0.230470
0.230470
0.230470
0.234380
0.250000
0.279300
0.304690
0.314450
0.345700
0.384770
0.394530
0.359380
0.339840
0.291020
0.300780
0.285160
0.246090
0.201170
0.179690
0.179690
0.160160
0.160160
0.156250
0.160160
0.150390
0.160160
0.156250
0.160160
0.185550
0.265620
0.394530
0.474610
0.525390
0.230470
0.041016
0.134770
0.160160
0.185550
0.205080
0.205080
0.205080
0.210940
0.214840
0.210940
0.220700
0.220700
0.230470
0.230470
0.240230
0.246090
0.255860
0.255860
0.259770
0.265620
0.275390
0.275390
0.275390
0.279300
0.279300
0.275390
0.259770
0.246090
0.224610
0.205080
0.179690
0.166020
0.160160
0.160160
0.175780
0.185550
0.189450
0.205080
0.205080
0.210940
0.210940
0.220700
0.220700
0.224610
0.224610
0.224610
0.220700
0.224610
0.230470
0.224610
0.230470
0.230470
0.234380
0.265620
0.294920
0.294920
0.320310
0.355470
0.371090
0.349610
0.335940
0.291020
0.279300
0.294920
0.255860
0.205080
0.179690
0.175780
0.169920
0.160160
0.160160
0.156250
0.160160
0.160160
0.160160
0.160160
0.169920
0.214840
0.349610
0.464840
0.560550
0.359380
0.076172
0.150390
0.169920
0.166020
0.179690
0.179690
0.179690
0.201170
0.201170
0.205080
0.205080
0.205080
0.210940
0.220700
0.220700
0.230470
0.234380
0.240230
0.250000
0.255860
0.259770
0.255860
0.275390
0.269530
0.265620
0.259770
0.255860
0.230470
0.210940
0.185550
0.169920
0.150390
0.144530
0.156250
0.166020
0.179690
0.201170
0.210940
0.220700
0.224610
0.230470
0.230470
0.224610
0.230470
0.234380
0.246090
0.234380
0.246090
0.246090
0.250000
0.250000
0.255860
0.250000
0.294920
0.310550
0.314450
0.339840
0.380860
0.390620
0.371090
0.345700
0.300780
0.310550
0.294920
0.265620
0.224610
0.189450
0.185550
0.179690
0.179690
0.175780
0.169920
0.175780
0.169920
0.175780
0.179690
0.195310
0.259770
0.394530
0.519530
0.599610
0.324220
0.130860
0.201170
0.205080
0.179690
0.201170
0.195310
0.195310
0.195310
0.201170
0.205080
0.205080
0.214840
0.224610
0.230470
0.230470
0.234380
0.234380
0.255860
0.255860
0.255860
0.259770
0.269530
0.265620
0.269530
0.265620
0.259770
0.240230
0.224610
0.205080
0.185550
0.166020
0.150390
0.140620
0.144530
0.160160
0.185550
0.195310
0.210940
0.214840
0.220700
0.224610
0.224610
0.230470
0.230470
0.234380
0.240230
0.246090
0.250000
0.255860
0.250000
0.255860
0.250000
0.259770
0.294920
0.320310
0.320310
0.345700
0.380860
0.394530
0.375000
0.349610
0.300780
0.294920
0.320310
0.275390
0.230470
0.205080
0.195310
0.185550
0.189450
0.179690
0.179690
0.179690
0.179690
0.179690
0.185550
0.195310
0.259770
0.390620
0.484380
0.554690
0.339840
0.070312
0.144530
0.179690
0.195310
0.205080
0.201170
0.214840
0.210940
0.224610
0.220700
0.230470
0.230470
0.234380
0.240230
0.255860
0.255860
0.259770
0.269530
0.275390
0.279300
0.285160
0.291020
0.294920
0.294920
0.300780
0.291020
0.285160
0.269530
0.255860
0.230470
0.205080
0.189450
0.179690
0.185550
0.195310
0.205080
0.214840
0.230470
0.230470
0.240230
0.234380
0.240230
0.240230
0.246090
0.240230
0.250000
0.250000
0.246090
0.250000
0.255860
0.255860
0.255860
0.255860
0.279300
0.310550
0.314450
0.335940
0.371090
0.394530
0.375000
0.359380
0.310550
0.294920
0.310550
0.269530
0.224610
0.189450
0.179690
0.179690
0.166020
0.166020
0.166020
0.169920
0.169920
0.169920
0.166020
0.175780
0.214840
0.355470
0.455080
0.525390
0.371090
0.050781
0.044922
0.134770
0.169920
0.185550
0.189450
0.185550
0.205080
0.205080
0.205080
0.205080
0.220700
0.220700
0.230470
0.230470
0.240230
0.246090
0.255860
0.259770
0.259770
0.269530
0.275390
0.275390
0.279300
0.285160
0.275390
0.265620
0.255860
0.230470
0.210940
0.195310
0.169920
0.160160
0.160160
0.175780
0.179690
0.189450
0.195310
0.205080
0.210940
0.210940
0.210940
0.210940
0.210940
0.214840
0.220700
0.220700
0.224610
0.220700
0.224610
0.220700
0.220700
0.230470
0.234380
0.269530
0.294920
0.294920
0.324220
0.359380
0.371090
0.339840
0.320310
0.265620
0.279300
0.265620
0.230470
0.185550
0.166020
0.156250
0.150390
0.140620
0.140620
0.140620
0.144530
0.150390
0.156250
0.156250
0.169920
0.240230
0.380860
0.460940
0.500000
0.224610
0.019531
0.111330
0.134770
0.169920
0.179690
0.179690
0.179690
0.189450
0.195310
0.205080
0.205080
0.210940
0.214840
0.220700
0.224610
0.230470
0.230470
0.240230
0.246090
0.246090
0.255860
0.269530
0.275390
0.275390
0.275390
0.269530
0.255860
0.246090
0.224610
0.205080
0.179690
0.160160
0.160160
0.160160
0.169920
0.179690
0.195310
0.205080
0.205080
0.205080
0.210940
0.214840
0.210940
0.214840
0.214840
0.220700
0.224610
0.230470
0.230470
0.230470
0.230470
0.230470
0.234380
0.259770
0.300780
0.300780
0.310550
0.349610
0.375000
0.365230
0.339840
0.304690
0.275390
0.291020
0.259770
0.210940
0.175780
0.160160
0.156250
0.150390
0.150390
0.150390
0.150390
0.144530
0.156250
0.156250
0.160160
0.185550
0.300780
0.416020
0.494140
0.505860
0.099609
0.031250
0.134770
0.156250
0.179690
0.175780
0.169920
0.179690
0.185550
0.185550
0.195310
0.205080
0.205080
0.205080
0.210940
0.220700
0.220700
0.230470
0.230470
0.234380
0.246090
0.250000
0.250000
0.255860
0.255860
0.255860
0.250000
0.234380
0.210940
0.195310
0.175780
0.156250
0.144530
0.144530
0.156250
0.166020
0.179690
0.189450
0.201170
0.201170
0.205080
0.205080
0.205080
0.201170
0.205080
0.210940
0.210940
0.210940
0.224610
0.214840
0.224610
0.220700
0.230470
0.240230
0.275390
0.285160
0.279300
0.330080
0.355470
0.359380
0.330080
0.294920
0.269530
0.285160
0.265620
0.224610
0.179690
0.169920
0.160160
0.156250
0.156250
0.160160
0.150390
0.156250
0.160160
0.169920
0.166020
0.195310
0.291020
0.429690
0.560550
0.589840
0.189450
0.111330
0.195310
0.166020
0.179690
0.179690
0.179690
0.179690
0.185550
0.195310
0.205080
0.201170
0.205080
0.205080
0.214840
0.220700
0.224610
0.224610
0.234380
0.250000
0.255860
0.255860
0.265620
0.269530
0.265620
0.255860
0.240230
0.230470
0.210940
0.185550
0.166020
0.144530
0.134770
0.140620
0.156250
0.175780
0.185550
0.195310
0.201170
0.220700
0.220700
0.224610
0.220700
0.224610
0.230470
0.234380
0.230470
0.234380
0.234380
0.246090
0.240230
0.250000
0.246090
0.240230
0.279300
0.300780
0.310550
0.335940
0.371090
0.384770
0.365230
0.335940
0.291020
0.300780
0.294920
0.250000
0.214840
0.189450
0.179690
0.169920
0.175780
0.166020
0.169920
0.169920
0.169920
0.169920
0.175780
0.189450
0.269530
0.410160
0.550780
0.625000
0.304690
0.134770
0.205080
0.210940
0.189450
0.189450
0.185550
0.185550
0.189450
0.195310
0.195310
0.205080
0.205080
0.210940
0.214840
0.224610
0.220700
0.230470
0.230470
0.240230
0.250000
0.255860
0.255860
0.259770
0.265620
0.259770
0.255860
0.246090
0.224610
0.201170
0.175780
0.160160
0.144530
0.134770
0.156250
0.166020
0.185550
0.201170
0.214840
0.214840
0.230470
0.230470
0.234380
0.230470
0.234380
0.234380
0.240230
0.246090
0.240230
0.255860
0.250000
0.255860
0.255860
0.259770
0.294920
0.320310
0.314450
0.339840
0.371090
0.394530
0.365230
0.345700
0.294920
0.291020
0.300780
0.259770
0.210940
0.185550
0.179690
0.179690
0.166020
0.160160
0.160160
0.160160
0.166020
0.166020
0.169920
0.166020
0.230470
0.365230
0.464840
0.535160
0.345700
0.044922
0.099609
0.150390
0.175780
0.189450
0.205080
0.205080
0.210940
0.214840
0.224610
0.224610
0.230470
0.230470
0.230470
0.234380
0.240230
0.240230
0.255860
0.259770
0.265620
0.275390
0.275390
0.291020
0.291020
0.285160
0.275390
0.275390
0.255860
0.240230
0.220700
0.205080
0.179690
0.169920
0.169920
0.179690
0.189450
0.205080
0.210940
0.220700
0.224610
0.220700
0.220700
0.220700
0.224610
0.220700
0.224610
0.230470
0.230470
0.224610
0.230470
0.230470
0.230470
0.234380
0.250000
0.291020
0.304690
0.304690
0.339840
0.371090
0.375000
0.345700
0.320310
0.275390
0.294920
0.275390
0.234380
0.195310
0.175780
0.166020
0.166020
0.160160
0.160160
0.160160
0.156250
0.160160
0.160160
0.166020
0.185550
0.279300
0.410160
0.490230
0.509770
0.175780
0.041016
0.130860
0.150390
0.179690
0.189450
0.185550
0.201170
0.201170
0.205080
0.214840
0.220700
0.220700
0.224610
0.230470
0.234380
0.234380
0.250000
0.250000
0.259770
0.259770
0.269530
0.275390
0.279300
0.285160
0.279300
0.269530
0.265620
0.246090
0.220700
0.201170
0.179690
0.166020
0.160160
0.160160
0.179690
0.189450
0.205080
0.210940
0.220700
0.220700
0.220700
0.224610
0.224610
0.224610
0.224610
0.230470
0.224610
0.230470
0.224610
0.230470
0.230470
0.230470
0.240230
0.279300
0.300780
0.300780
0.330080
0.365230
0.384770
0.355470
0.330080
0.279300
0.275390
0.291020
0.246090
0.201170
0.179690
0.166020
0.166020
0.160160
0.156250
0.156250
0.160160
0.160160
0.160160
0.160160
0.175780
0.224610
0.365230
0.449220
0.505860
0.291020
0.025391
0.099609
0.144530
0.169920
0.179690
0.185550
0.189450
0.201170
0.205080
0.214840
0.210940
0.220700
0.220700
0.230470
0.234380
0.240230
0.246090
0.255860
0.259770
0.275390
0.275390
0.279300
0.279300
0.285160
0.285160
0.279300
0.269530
0.255860
0.240230
0.210940
0.185550
0.175780
0.166020
0.166020
0.169920
0.185550
0.201170
0.205080
0.214840
0.214840
0.220700
0.214840
0.220700
0.214840
0.224610
0.220700
0.224610
0.224610
0.224610
0.230470
0.230470
0.230470
0.230470
0.265620
0.291020
0.294920
0.314450
0.349610
0.371090
0.349610
0.330080
0.279300
0.275390
0.294920
0.255860
0.214840
0.179690
0.169920
0.166020
0.166020
0.156250
0.156250
0.150390
0.160160
0.160160
0.166020
0.169920
0.224610
0.355470
0.460940
0.550780
0.355470
0.076172
0.144530
0.175780
0.166020
0.179690
0.179690
0.185550
0.179690
0.195310
0.195310
0.205080
0.205080
0.210940
0.220700
0.224610
0.224610
0.230470
0.240230
0.255860
0.255860
0.259770
0.265620
0.275390
0.275390
0.275390
0.259770
0.255860
0.234380
0.214840
0.189450
0.169920
0.156250
0.144530
0.156250
0.160160
0.175780
0.201170
0.214840
0.214840
0.230470
0.230470
0.230470
0.230470
0.240230
0.234380
0.234380
0.230470
0.240230
0.246090
0.230470
0.246090
0.250000
0.259770
0.294920
0.304690
0.314450
0.349610
0.380860
0.390620
0.359380
0.335940
0.291020
0.304690
0.285160
0.240230
0.201170
0.189450
0.175780
0.175780
0.175780
0.175780
0.166020
0.169920
0.175780
0.166020
0.179690
0.201170
0.294920
0.435550
0.580080
0.625000
0.201170
0.130860
0.210940
0.179690
0.189450
0.185550
0.185550
0.185550
0.195310
0.195310
0.201170
0.201170
0.205080
0.205080
0.210940
0.214840
0.220700
0.230470
0.230470
0.234380
0.240230
0.246090
0.250000
0.255860
0.255860
0.246090
0.230470
0.214840
0.195310
0.175780
0.156250
0.134770
0.125000
0.130860
0.134770
0.160160
0.175780
0.189450
0.205080
0.214840
0.220700
0.220700
0.214840
0.214840
0.224610
0.224610
0.230470
0.230470
0.230470
0.230470
0.230470
0.230470
0.246090
0.275390
0.304690
0.300780
0.320310
0.365230
0.380860
0.359380
0.345700
0.291020
0.279300
0.300780
0.265620
0.220700
0.185550
0.175780
0.169920
0.160160
0.156250
0.160160
0.160160
0.160160
0.160160
0.169920
0.166020
0.230470
0.365230
0.474610
0.550780
0.330080
0.044922
0.115230
0.150390
0.175780
0.185550
0.195310
0.201170
0.205080
0.205080
0.210940
0.214840
0.224610
0.230470
0.230470
0.240230
0.246090
0.255860
0.255860
0.265620
0.269530
0.275390
0.275390
0.279300
0.279300
0.285160
0.275390
0.269530
0.250000
0.234380
0.214840
0.195310
0.175780
0.166020
0.175780
0.189450
0.201170
0.214840
0.220700
0.230470
0.230470
0.230470
0.230470
0.230470
0.234380
0.230470
0.230470
0.230470
0.230470
0.230470
0.240230
0.246090
0.250000
0.269530
0.304690
0.314450
0.330080
0.365230
0.394530
0.384770
0.359380
0.324220
0.291020
0.300780
0.279300
0.230470
0.195310
0.179690
0.169920
0.166020
0.160160
0.156250
0.156250
0.160160
0.160160
0.166020
0.166020
0.205080
0.320310
0.445310
0.519530
0.435550
0.089844
0.035156
0.134770
0.160160
0.179690
0.185550
0.195310
0.205080
0.201170
0.201170
0.205080
0.205080
0.214840
0.220700
0.230470
0.234380
0.240230
0.246090
0.255860
0.255860
0.259770
0.269530
0.279300
0.285160
0.279300
0.275390
0.269530
0.255860
0.234380
0.214840
0.189450
0.166020
0.160160
0.156250
0.160160
0.179690
0.189450
0.205080
0.205080
0.210940
0.210940
0.214840
0.220700
0.224610
0.220700
0.220700
0.220700
0.230470
0.224610
0.230470
0.230470
0.230470
0.234380
0.269530
0.291020
0.300780
0.330080
0.365230
0.375000
0.345700
0.320310
0.275390
0.285160
0.269530
0.230470
0.179690
0.166020
0.156250
0.150390
0.144530
0.140620
0.134770
0.144530
0.144530
0.156250
0.156250
0.175780
0.234380
0.371090
0.455080
0.494140
0.246090
0.019531
0.099609
0.134770
0.160160
0.175780
0.179690
0.185550
0.189450
0.185550
0.195310
0.195310
0.205080
0.210940
0.220700
0.224610
0.230470
0.234380
0.240230
0.246090
0.255860
0.255860
0.269530
0.265620
0.275390
0.269530
0.265620
0.255860
0.234380
0.220700
0.195310
0.175780
0.156250
0.150390
0.150390
0.166020
0.179690
0.189450
0.195310
0.205080
0.205080
0.214840
0.210940
0.214840
0.210940
0.220700
0.224610
0.224610
0.214840
0.220700
0.220700
0.220700
0.220700
0.240230
0.275390
0.291020
0.294920
0.335940
0.359380
0.365230
0.335940
0.304690
0.269530
0.285160
0.265620
0.220700
0.179690
0.166020
0.160160
0.150390
0.140620
0.140620
0.144530
0.140620
0.150390
0.144530
0.140620
0.175780
0.275390
0.404300
0.494140
0.519530
0.130860
0.041016
0.130860
0.150390
0.175780
0.179690
0.179690
0.189450
0.189450
0.195310
0.195310
0.201170
0.205080
0.210940
0.210940
0.220700
0.224610
0.230470
0.230470
0.246090
0.246090
0.255860
0.259770
0.259770
0.259770
0.255860
0.246090
0.230470
0.220700
0.201170
0.179690
0.160160
0.150390
0.140620
0.156250
0.166020
0.189450
0.201170
0.210940
0.205080
0.205080
0.205080
0.205080
0.205080
0.214840
0.220700
0.220700
0.220700
0.220700
0.224610
0.230470
0.230470
0.234380
0.265620
0.294920
0.300780
0.294920
0.345700
0.371090
0.359380
0.335940
0.300780
0.279300
0.300780
0.259770
0.214840
0.179690
0.169920
0.156250
0.150390
0.144530
0.150390
0.156250
0.150390
0.156250
0.160160
0.169920
0.214840
0.335940
0.460940
0.574220
0.419920
0.095703
0.089844
0.175780
0.166020
0.179690
0.185550
0.189450
0.185550
0.189450
0.185550
0.201170
0.205080
0.210940
0.205080
0.210940
0.224610
0.230470
0.230470
0.234380
0.234380
0.246090
0.255860
0.255860
0.259770
0.259770
0.259770
0.246090
0.224610
0.205080
0.185550
0.160160
0.156250
0.140620
0.140620
0.156250
0.179690
0.189450
0.201170
0.205080
0.220700
0.224610
0.230470
0.224610
0.220700
0.224610
0.224610
0.220700
0.224610
0.234380
0.234380
0.234380
0.234380
0.250000
0.291020
0.300780
0.300780
0.330080
0.365230
0.380860
0.365230
0.339840
0.291020
0.300780
0.291020
0.255860
0.214840
0.185550
0.179690
0.179690
0.175780
0.169920
0.169920
0.175780
0.179690
0.175780
0.189450
0.201170
0.279300
0.419920
0.554690
0.619140
0.285160
0.125000
0.205080
0.179690
0.185550
0.189450
0.189450
0.189450
0.195310
0.189450
0.195310
0.205080
0.210940
0.205080
0.210940
0.214840
0.224610
0.230470
0.230470
0.246090
0.250000
0.255860
0.259770
0.269530
0.269530
0.265620
0.250000
0.234380
0.214840
0.205080
0.175780
0.156250
0.140620
0.144530
0.150390
0.166020
0.185550
0.201170
0.214840
0.224610
0.230470
0.230470
0.234380
0.234380
0.240230
0.246090
0.246090
0.246090
0.250000
0.250000
0.250000
0.250000
0.259770
0.291020
0.320310
0.314450
0.339840
0.375000
0.394530
0.371090
0.349610
0.304690
0.294920
0.310550
0.265620
0.220700
0.195310
0.185550
0.179690
0.175780
0.169920
0.175780
0.169920
0.169920
0.169920
0.175780
0.179690
0.240230
0.380860
0.484380
0.550780
0.339840
0.050781
0.111330
0.150390
0.175780
0.195310
0.195310
0.205080
0.205080
0.210940
0.210940
0.220700
0.224610
0.230470
0.230470
0.240230
0.240230
0.255860
0.255860
0.265620
0.269530
0.275390
0.269530
0.279300
0.285160
0.291020
0.275390
0.275390
0.255860
0.240230
0.214840
0.201170
0.179690
0.169920
0.179690
0.185550
0.201170
0.210940
0.220700
0.224610
0.230470
0.224610
0.230470
0.230470
0.230470
0.230470
0.234380
0.234380
0.240230
0.234380
0.240230
0.246090
0.250000
0.259770
0.300780
0.314450
0.314450
0.349610
0.390620
0.394530
0.365230
0.339840
0.291020
0.300780
0.285160
0.240230
0.201170
0.169920
0.166020
0.166020
0.160160
0.166020
0.166020
0.169920
0.166020
0.175780
0.175780
0.195310
0.269530
0.416020
0.494140
0.529300
0.224610
0.035156
0.125000
0.156250
0.185550
0.195310
0.201170
0.205080
0.205080
0.214840
0.220700
0.224610
0.230470
0.230470
0.240230
0.246090
0.250000
0.250000
0.259770
0.265620
0.275390
0.275390
0.285160
0.291020
0.285160
0.291020
0.279300
0.259770
0.246090
0.224610
0.205080
0.185550
0.169920
0.166020
0.160160
0.185550
0.201170
0.210940
0.214840
0.220700
0.220700
0.224610
0.220700
0.224610
0.224610
0.230470
0.230470
0.230470
0.230470
0.234380
0.234380
0.234380
0.240230
0.250000
0.294920
0.304690
0.310550
0.345700
0.375000
0.380860
0.349610
0.324220
0.285160
0.300780
0.279300
0.234380
0.205080
0.179690
0.175780
0.160160
0.166020
0.169920
0.166020
0.166020
0.175780
0.169920
0.169920
0.189450
0.269530
0.404300
0.484380
0.519530
0.185550
0.031250
0.130860
0.160160
0.179690
0.195310
0.195310
0.205080
0.205080
0.214840
0.220700
0.224610
0.230470
0.230470
0.230470
0.234380
0.240230
0.250000
0.255860
0.259770
0.265620
0.269530
0.279300
0.285160
0.291020
0.279300
0.275390
0.255860
0.240230
0.220700
0.201170
0.175780
0.160160
0.156250
0.166020
0.175780
0.189450
0.195310
0.214840
0.220700
0.230470
0.230470
0.230470
0.230470
0.230470
0.230470
0.230470
0.230470
0.230470
0.230470
0.246090
0.250000
0.246090
0.250000
0.259770
0.300780
0.310550
0.320310
0.359380
0.390620
0.394530
0.349610
0.310550
0.279300
0.294920
0.269530
0.224610
0.189450
0.169920
0.166020
0.160160
0.156250
0.160160
0.160160
0.160160
0.160160
0.160160
0.160160
0.189450
0.304690
0.429690
0.515620
0.519530
0.099609
0.041016
0.144530
0.160160
0.179690
0.179690
0.185550
0.195310
0.195310
0.201170
0.205080
0.214840
0.224610
0.230470
0.230470
0.230470
0.230470
0.240230
0.250000
0.255860
0.259770
0.259770
0.265620
0.275390
0.275390
0.269530
0.259770
0.246090
0.224610
0.205080
0.189450
0.160160
0.150390
0.150390
0.166020
0.175780
0.189450
0.205080
0.210940
0.220700
0.214840
0.220700
0.214840
0.230470
0.224610
0.220700
0.220700
0.224610
0.230470
0.230470
0.224610
0.224610
0.230470
0.259770
0.291020
0.294920
0.291020
0.330080
0.359380
0.371090
0.339840
0.304690
0.269530
0.279300
0.259770
0.230470
0.189450
0.169920
0.166020
0.166020
0.166020
0.156250
0.150390
0.150390
0.160160
0.166020
0.166020
0.185550
0.291020
0.425780
0.554690
0.570310
0.144530
0.089844
0.185550
0.169920
0.179690
0.175780
0.179690
0.189450
0.179690
0.189450
0.195310
0.201170
0.205080
0.205080
0.210940
0.220700
0.220700
0.230470
0.230470
0.230470
0.230470
0.240230
0.250000
0.255860
0.250000
0.250000
0.246090
0.230470
0.210940
0.195310
0.160160
0.140620
0.134770
0.140620
0.156250
0.166020
0.179690
0.201170
0.210940
0.220700
0.220700
0.220700
0.224610
0.230470
0.230470
0.230470
0.220700
0.224610
0.230470
0.224610
0.234380
0.230470
0.230470
0.240230
0.275390
0.294920
0.294920
0.320310
0.359380
0.375000
0.345700
0.330080
0.279300
0.294920
0.279300
0.246090
0.201170
0.175780
0.166020
0.160160
0.160160
0.156250
0.144530
0.156250
0.160160
0.160160
0.160160
0.179690
0.265620
0.404300
0.525390
0.583980
0.234380
0.095703
0.175780
0.166020
0.175780
0.179690
0.179690
0.179690
0.185550
0.189450
0.201170
0.201170
0.205080
0.210940
0.214840
0.220700
0.230470
0.234380
0.246090
0.246090
0.250000
0.250000
0.255860
0.265620
0.275390
0.275390
0.259770
0.250000
0.234380
0.220700
0.201170
0.175780
0.160160
0.160160
0.166020
0.185550
0.201170
0.220700
0.230470
0.234380
0.234380
0.240230
0.240230
0.246090
0.234380
0.246090
0.246090
0.246090
0.250000
0.255860
0.255860
0.255860
0.255860
0.269530
0.304690
0.324220
0.330080
0.355470
0.384770
0.394530
0.371090
0.345700
0.294920
0.304690
0.300780
0.255860
0.214840
0.185550
0.185550
0.175780
0.169920
0.160160
0.160160
0.160160
0.160160
0.160160
0.160160
0.175780
0.265620
0.404300
0.490230
0.535160
0.224610
0.035156
0.121090
0.156250
0.179690
0.195310
0.195310
0.210940
0.205080
0.210940
0.210940
0.214840
0.220700
0.224610
0.224610
0.230470
0.234380
0.246090
0.250000
0.255860
0.269530
0.275390
0.275390
0.275390
0.285160
0.285160
0.275390
0.255860
0.240230
0.224610
0.205080
0.185550
0.169920
0.160160
0.166020
0.169920
0.179690
0.195310
0.210940
0.214840
0.220700
0.214840
0.220700
0.220700
0.220700
0.220700
0.224610
0.224610
0.230470
0.224610
0.230470
0.230470
0.230470
0.234380
0.255860
0.291020
0.300780
0.310550
0.349610
0.375000
0.380860
0.345700
0.304690
0.275390
0.279300
0.259770
0.210940
0.175780
0.160160
0.156250
0.140620
0.144530
0.140620
0.134770
0.140620
0.134770
0.150390
0.144530
0.185550
0.300780
0.425780
0.500000
0.505860
0.080078
0.015625
0.121090
0.150390
0.175780
0.179690
0.179690
0.195310
0.201170
0.205080
0.205080
0.210940
0.214840
0.214840
0.220700
0.214840
0.230470
0.234380
0.246090
0.250000
0.255860
0.259770
0.269530
0.265620
0.275390
0.269530
0.265620
0.250000
0.230470
0.210940
0.189450
0.175780
0.160160
0.160160
0.169920
0.179690
0.189450
0.205080
0.210940
0.220700
0.220700
0.224610
0.220700
0.214840
0.210940
0.220700
0.210940
0.220700
0.220700
0.220700
0.220700
0.220700
0.214840
0.224610
0.246090
0.285160
0.291020
0.300780
0.339840
0.371090
0.365230
0.345700
0.314450
0.275390
0.291020
0.265620
0.214840
0.179690
0.166020
0.160160
0.160160
0.150390
0.156250
0.150390
0.156250
0.160160
0.156250
0.160160
0.185550
0.304690
0.425780
0.494140
0.419920
0.085938
0.019531
0.134770
0.156250
0.179690
0.189450
0.195310
0.201170
0.201170
0.205080
0.210940
0.214840
0.224610
0.220700
0.230470
0.230470
0.234380
0.246090
0.255860
0.255860
0.269530
0.269530
0.275390
0.275390
0.275390
0.265620
0.259770
0.246090
0.234380
0.210940
0.195310
0.175780
0.166020
0.160160
0.166020
0.179690
0.189450
0.205080
0.205080
0.214840
0.214840
0.224610
0.220700
0.224610
0.214840
0.224610
0.224610
0.230470
0.230470
0.230470
0.224610
0.230470
0.230470
0.230470
0.230470
0.269530
0.291020
0.291020
0.314450
0.355470
0.375000
0.345700
0.324220
0.275390
0.285160
0.275390
0.250000
0.205080
0.175780
0.160160
0.160160
0.160160
0.156250
0.150390
0.144530
0.156250
0.160160
0.160160
0.175780
0.246090
0.384770
0.480470
0.539060
0.291020
0.044922
0.134770
0.175780
0.179690
0.185550
0.185550
0.195310
0.195310
0.201170
0.205080
0.205080
0.214840
0.220700
0.230470
0.224610
0.230470
0.230470
0.240230
0.246090
0.246090
0.255860
0.265620
0.269530
0.275390
0.275390
0.275390
0.259770
0.240230
0.220700
0.195310
0.175780
0.160160
0.160160
0.160160
0.166020
0.179690
0.205080
0.210940
0.230470
0.230470
0.230470
0.224610
0.234380
0.230470
0.234380
0.240230
0.246090
0.246090
0.246090
0.246090
0.246090
0.250000
0.255860
0.265620
0.304690
0.324220
0.310550
0.355470
0.390620
0.394530
0.371090
0.345700
0.300780
0.314450
0.300780
0.255860
0.214840
0.201170
0.179690
0.185550
0.179690
0.179690
0.175780
0.179690
0.179690
0.179690
0.179690
0.210940
0.300780
0.435550
0.554690
0.605470
0.230470
0.121090
0.205080
0.201170
0.205080
0.201170
0.205080
0.205080
0.210940
0.210940
0.220700
0.224610
0.220700
0.230470
0.230470
0.240230
0.246090
0.246090
0.255860
0.265620
0.265620
0.269530
0.269530
0.275390
0.279300
0.275390
0.259770
0.250000
0.224610
0.205080
0.179690
0.160160
0.144530
0.150390
0.156250
0.169920
0.179690
0.205080
0.214840
0.224610
0.230470
0.230470
0.230470
0.230470
0.230470
0.230470
0.230470
0.230470
0.230470
0.240230
0.246090
0.240230
0.246090
0.246090
0.259770
0.294920
0.304690
0.300780
0.349610
0.380860
0.384770
0.359380
0.314450
0.291020
0.300780
0.279300
0.234380
0.189450
0.179690
0.175780
0.169920
0.166020
0.166020
0.166020
0.160160
0.166020
0.169920
0.179690
0.210940
0.330080
0.460940
0.580080
0.480470
0.125000
0.080078
0.175780
0.175780
0.205080
0.205080
0.205080
0.210940
0.214840
0.220700
0.224610
0.230470
0.234380
0.240230
0.246090
0.255860
0.255860
0.265620
0.269530
0.275390
0.275390
0.291020
0.294920
0.300780
0.294920
0.291020
0.279300
0.265620
0.246090
0.224610
0.201170
0.179690
0.166020
0.166020
0.179690
0.195310
0.205080
0.220700
0.230470
0.230470
0.234380
0.234380
0.240230
0.234380
0.234380
0.234380
0.240230
0.234380
0.246090
0.246090
0.250000
0.246090
0.250000
0.246090
0.255860
0.294920
0.310550
0.314450
0.349610
0.380860
0.390620
0.355470
0.330080
0.279300
0.300780
0.279300
0.240230
0.201170
0.179690
0.175780
0.160160
0.160160
0.156250
0.160160
0.160160
0.166020
0.160160
0.166020
0.185550
0.291020
0.419920
0.500000
0.529300
0.179690
0.031250
0.125000
0.156250
0.185550
0.189450
0.195310
0.201170
0.205080
0.205080
0.210940
0.220700
0.214840
0.230470
0.230470
0.230470
0.234380
0.250000
0.255860
0.255860
0.265620
0.275390
0.275390
0.285160
0.291020
0.291020
0.275390
0.269530
0.250000
0.230470
0.205080
0.179690
0.166020
0.160160
0.160160
0.175780
0.189450
0.195310
0.205080
0.210940
0.214840
0.220700
0.230470
0.224610
0.230470
0.230470
0.230470
0.230470
0.230470
0.230470
0.230470
0.230470
0.230470
0.230470
0.230470
0.234380
0.275390
0.300780
0.300780
0.330080
0.365230
0.380860
0.349610
0.324220
0.275390
0.291020
0.275390
0.246090
0.195310
0.175780
0.166020
0.160160
0.160160
0.156250
0.150390
0.156250
0.156250
0.160160
0.160160
0.169920
0.240230
0.384770
0.474610
0.509770
0.259770
0.015625
0.099609
0.144530
0.175780
0.185550
0.195310
0.195310
0.201170
0.205080
0.214840
0.210940
0.214840
0.220700
0.230470
0.230470
0.246090
0.250000
0.255860
0.255860
0.259770
0.269530
0.275390
0.279300
0.279300
0.285160
0.275390
0.269530
0.259770
0.246090
0.214840
0.195310
0.175780
0.166020
0.169920
0.179690
0.189450
0.205080
0.210940
0.214840
0.220700
0.220700
0.230470
0.230470
0.230470
0.230470
0.234380
0.240230
0.246090
0.234380
0.246090
0.240230
0.246090
0.250000
0.250000
0.250000
0.275390
0.304690
0.310550
0.320310
0.359380
0.380860
0.390620
0.345700
0.300780
0.275390
0.300780
0.269530
0.224610
0.185550
0.179690
0.166020
0.160160
0.156250
0.150390
0.156250
0.150390
0.156250
0.156250
0.160160
0.195310
0.324220
0.429690
0.509770
0.380860
0.041016
0.015625
0.140620
0.156250
0.179690
0.185550
0.189450
0.195310
0.201170
0.205080
0.205080
0.210940
0.220700
0.220700
0.224610
0.230470
0.234380
0.240230
0.246090
0.255860
0.255860
0.265620
0.265620
0.275390
0.275390
0.275390
0.255860
0.250000
0.230470
0.210940
0.179690
0.160160
0.144530
0.144530
0.160160
0.169920
0.179690
0.201170
0.205080
0.210940
0.210940
0.210940
0.214840
0.210940
0.214840
0.210940
0.220700
0.214840
0.224610
0.220700
0.220700
0.220700
0.224610
0.220700
0.230470
0.259770
0.294920
0.300780
0.310550
0.349610
0.375000
0.355470
0.335940
0.285160
0.275390
0.291020
0.250000
0.210940
0.179690
0.166020
0.160160
0.160160
0.160160
0.160160
0.156250
0.150390
0.156250
0.160160
0.160160
0.210940
0.335940
0.449220
0.554690
0.400390
0.076172
0.121090
0.166020
0.160160
0.179690
0.179690
0.185550
0.179690
0.189450
0.201170
0.205080
0.195310
0.205080
0.205080
0.220700
0.220700
0.230470
0.240230
0.246090
0.246090
0.255860
0.255860
0.259770
0.265620
0.269530
0.255860
0.250000
0.224610
0.205080
0.189450
0.160160
0.144530
0.134770
0.140620
0.156250
0.169920
0.185550
0.205080
0.205080
0.220700
0.220700
0.224610
0.214840
0.224610
0.224610
0.230470
0.230470
0.224610
0.230470
0.230470
0.230470
0.224610
0.220700
0.230470
0.240230
0.275390
0.291020
0.294920
0.324220
0.365230
0.371090
0.349610
0.330080
0.285160
0.300780
0.279300
0.240230
0.201170
0.179690
0.175780
0.169920
0.160160
0.160160
0.156250
0.160160
0.160160
0.160160
0.160160
0.185550
0.269530
0.410160
0.525390
0.583980
0.246090
0.095703
0.179690
0.166020
0.175780
0.169920
0.175780
0.175780
0.179690
0.175780
0.185550
0.189450
0.201170
0.201170
0.205080
0.205080
0.214840
0.220700
0.230470
0.230470
0.240230
0.250000
0.255860
0.259770
0.259770
0.265620
0.255860
0.246090
0.230470
0.210940
0.179690
0.166020
0.150390
0.140620
0.150390
0.166020
0.179690
0.201170
0.214840
0.230470
0.224610
0.230470
0.224610
0.230470
0.230470
0.224610
0.230470
0.230470
0.234380
0.240230
0.246090
0.240230
0.246090
0.240230
0.246090
0.250000
0.285160
0.304690
0.300780
0.324220
0.365230
0.375000
0.355470
0.324220
0.279300
0.275390
0.294920
0.240230
0.195310
0.166020
0.160160
0.150390
0.160160
0.150390
0.144530
0.150390
0.150390
0.156250
0.156250
0.169920
0.234380
0.375000
0.464840
0.509770
0.250000
0.015625
0.099609
0.140620
0.166020
0.179690
0.179690
0.185550
0.189450
0.201170
0.195310
0.205080
0.205080
0.205080
0.214840
0.220700
0.230470
0.234380
0.250000
0.255860
0.255860
0.259770
0.275390
0.275390
0.275390
0.269530
0.265620
0.250000
0.240230
0.214840
0.201170
0.179690
0.160160
0.150390
0.160160
0.166020
0.179690
0.185550
0.205080
0.210940
0.214840
0.214840
0.210940
0.214840
0.210940
0.210940
0.220700
0.230470
0.224610
0.230470
0.230470
0.230470
0.230470
0.230470
0.230470
0.255860
0.285160
0.300780
0.294920
0.339840
0.365230
0.371090
0.339840
0.304690
0.269530
0.285160
0.265620
0.214840
0.175780
0.160160
0.156250
0.156250
0.150390
0.144530
0.144530
0.140620
0.150390
0.150390
0.160160
0.185550
0.300780
0.425780
0.500000
0.505860
0.099609
0.015625
0.125000
0.150390
0.179690
0.185550
0.195310
0.195310
0.205080
0.205080
0.205080
0.210940
0.214840
0.224610
0.224610
0.230470
0.230470
0.240230
0.246090
0.255860
0.259770
0.269530
0.275390
0.279300
0.275390
0.275390
0.275390
0.259770
0.246090
0.224610
0.201170
0.179690
0.160160
0.150390
0.156250
0.166020
0.185550
0.195310
0.205080
0.205080
0.210940
0.210940
0.214840
0.220700
0.220700
0.230470
0.230470
0.230470
0.234380
0.234380
0.240230
0.230470
0.230470
0.230470
0.234380
0.246090
0.279300
0.300780
0.304690
0.339840
0.380860
0.390620
0.359380
0.330080
0.279300
0.300780
0.279300
0.240230
0.195310
0.179690
0.169920
0.169920
0.160160
0.160160
0.160160
0.160160
0.160160
0.160160
0.160160
0.179690
0.259770
0.400390
0.480470
0.509770
0.201170
0.015625
0.121090
0.156250
0.179690
0.189450
0.195310
0.195310
0.205080
0.205080
0.214840
0.220700
0.224610
0.230470
0.240230
0.250000
0.250000
0.255860
0.255860
0.259770
0.269530
0.275390
0.285160
0.291020
0.294920
0.300780
0.291020
0.275390
0.265620
0.246090
0.214840
0.201170
0.179690
0.169920
0.160160
0.175780
0.195310
0.210940
0.214840
0.230470
0.220700
0.224610
0.220700
0.224610
0.224610
0.230470
0.230470
0.234380
0.230470
0.234380
0.234380
0.240230
0.246090
0.234380
0.240230
0.234380
0.279300
0.300780
0.300780
0.330080
0.371090
0.380860
0.355470
0.335940
0.285160
0.279300
0.294920
0.250000
0.220700
0.189450
0.179690
0.175780
0.169920
0.160160
0.160160
0.166020
0.175780
0.175780
0.169920
0.185550
0.255860
0.384770
0.494140
0.544920
0.294920
0.064453
0.144530
0.169920
0.185550
0.205080
0.205080
0.205080
0.210940
0.214840
0.220700
0.224610
0.220700
0.230470
0.230470
0.230470
0.246090
0.250000
0.250000
0.255860
0.259770
0.259770
0.275390
0.275390
0.275390
0.275390
0.265620
0.255860
0.240230
0.220700
0.201170
0.169920
0.160160
0.150390
0.150390
0.156250
0.175780
0.185550
0.205080
0.210940
0.214840
0.220700
0.210940
0.220700
0.210940
0.214840
0.220700
0.230470
0.230470
0.230470
0.230470
0.230470
0.230470
0.230470
0.234380
0.255860
0.285160
0.304690
0.300780
0.345700
0.371090
0.375000
0.355470
0.330080
0.279300
0.300780
0.285160
0.240230
0.201170
0.179690
0.169920
0.166020
0.160160
0.160160
0.156250
0.160160
0.160160
0.166020
0.160160
0.189450
0.291020
0.419920
0.544920
0.580080
0.201170
0.099609
0.189450
0.169920
0.179690
0.185550
0.185550
0.189450
0.201170
0.195310
0.201170
0.205080
0.201170
0.205080
0.214840
0.224610
0.230470
0.234380
0.240230
0.250000
0.255860
0.255860
0.255860
0.259770
0.259770
0.255860
0.240230
0.230470
0.205080
0.189450
0.160160
0.140620
0.121090
0.115230
0.130860
0.150390
0.160160
0.179690
0.195310
0.205080
0.214840
0.210940
0.220700
0.214840
0.214840
0.210940
0.220700
0.214840
0.224610
0.224610
0.230470
0.230470
0.224610
0.230470
0.240230
0.269530
0.294920
0.300780
0.294920
0.355470
0.371090
0.355470
0.330080
0.285160
0.279300
0.294920
0.246090
0.201170
0.179690
0.175780
0.166020
0.166020
0.156250
0.156250
0.160160
0.166020
0.160160
0.175780
0.185550
0.246090
0.384770
0.494140
0.570310
0.335940
0.070312
0.144530
0.166020
0.179690
0.189450
0.195310
0.201170
0.201170
0.205080
0.205080
0.214840
0.214840
0.224610
0.230470
0.240230
0.246090
0.255860
0.255860
0.259770
0.265620
0.275390
0.285160
0.294920
0.291020
0.285160
0.275390
0.265620
0.250000
0.230470
0.214840
0.189450
0.175780
0.160160
0.166020
0.179690
0.195310
0.201170
0.214840
0.224610
0.230470
0.230470
0.230470
0.224610
0.230470
0.230470
0.234380
0.230470
0.234380
0.234380
0.240230
0.240230
0.240230
0.246090
0.240230
0.255860
0.294920
0.310550
0.314450
0.349610
0.375000
0.384770
0.355470
0.330080
0.279300
0.300780
0.279300
0.234380
0.201170
0.179690
0.160160
0.160160
0.160160
0.156250
0.160160
0.156250
0.160160
0.160160
0.160160
0.185550
0.275390
0.419920
0.490230
0.519530
0.166020
0.019531
0.121090
0.150390
0.179690
0.189450
0.195310
0.195310
0.201170
0.205080
0.210940
0.210940
0.224610
0.224610
0.230470
0.230470
0.240230
0.246090
0.255860
0.255860
0.265620
0.275390
0.279300
0.285160
0.285160
0.279300
0.279300
0.269530
0.250000
0.224610
0.205080
0.185550
0.166020
0.160160
0.160160
0.175780
0.179690
0.195310
0.205080
0.214840
0.214840
0.220700
0.224610
0.220700
0.220700
0.224610
0.230470
0.230470
0.230470
0.230470
0.234380
0.230470
0.234380
0.234380
0.246090
0.265620
0.300780
0.304690
0.320310
0.359380
0.384770
0.365230
0.339840
0.291020
0.275390
0.291020
0.259770
0.210940
0.179690
0.169920
0.160160
0.160160
0.156250
0.150390
0.150390
0.156250
0.160160
0.160160
0.166020
0.214840
0.335940
0.445310
0.515620
0.390620
0.044922
0.025391
0.134770
0.166020
0.185550
0.195310
0.201170
0.205080
0.205080
0.210940
0.220700
0.224610
0.220700
0.224610
0.230470
0.234380
0.240230
0.250000
0.255860
0.255860
0.269530
0.275390
0.285160
0.279300
0.285160
0.279300
0.275390
0.255860
0.240230
0.220700
0.205080
0.179690
0.166020
0.160160
0.166020
0.179690
0.189450
0.205080
0.214840
0.224610
0.230470
0.230470
0.230470
0.230470
0.224610
0.230470
0.230470
0.234380
0.230470
0.234380
0.230470
0.234380
0.230470
0.230470
0.234380
0.259770
0.291020
0.300780
0.304690
0.349610
0.375000
0.380860
0.339840
0.300780
0.279300
0.300780
0.259770
0.214840
0.185550
0.175780
0.166020
0.160160
0.160160
0.160160
0.160160
0.160160
0.160160
0.160160
0.166020
0.201170
0.324220
0.435550
0.515620
0.400390
0.060547
0.019531
0.144530
0.166020
0.189450
0.189450
0.195310
0.201170
0.205080
0.210940
0.205080
0.214840
0.214840
0.224610
0.220700
0.230470
0.234380
0.246090
0.250000
0.255860
0.259770
0.275390
0.275390
0.279300
0.279300
0.285160
0.275390
0.265620
0.240230
0.220700
0.201170
0.179690
0.160160
0.150390
0.160160
0.179690
0.195310
0.205080
0.210940
0.214840
0.224610
0.214840
0.220700
0.220700
0.220700
0.220700
0.224610
0.224610
0.230470
0.230470
0.230470
0.230470
0.230470
0.230470
0.230470
0.255860
0.291020
0.294920
0.291020
0.345700
0.365230
0.371090
0.335940
0.294920
0.269530
0.285160
0.255860
0.220700
0.179690
0.166020
0.160160
0.156250
0.150390
0.156250
0.160160
0.160160
0.156250
0.160160
0.160160
0.195310
0.314450
0.439450
0.544920
0.439450
0.089844
0.060547
0.175780
0.166020
0.185550
0.179690
0.185550
0.185550
0.195310
0.189450
0.201170
0.201170
0.205080
0.205080
0.210940
0.214840
0.220700
0.230470
0.230470
0.230470
0.250000
0.255860
0.250000
0.255860
0.255860
0.255860
0.246090
0.230470
0.214840
0.201170
0.169920
0.160160
0.150390
0.150390
0.156250
0.175780
0.185550
0.201170
0.210940
0.224610
0.220700
0.224610
0.230470
0.224610
0.230470
0.234380
0.230470
0.234380
0.240230
0.234380
0.240230
0.240230
0.246090
0.234380
0.255860
0.294920
0.310550
0.304690
0.349610
0.375000
0.384770
0.355470
0.330080
0.285160
0.310550
0.291020
0.250000
0.205080
0.185550
0.179690
0.175780
0.160160
0.160160
0.166020
0.160160
0.169920
0.169920
0.179690
0.195310
0.291020
0.416020
0.550780
0.599610
0.230470
0.115230
0.201170
0.189450
0.185550
0.195310
0.185550
0.185550
0.185550
0.189450
0.195310
0.201170
0.205080
0.210940
0.214840
0.220700
0.230470
0.240230
0.246090
0.255860
0.255860
0.255860
0.255860
0.265620
0.265620
0.265620
0.255860
0.240230
0.214840
0.201170
0.175780
0.160160
0.134770
0.134770
0.140620
0.160160
0.169920
0.189450
0.201170
0.205080
0.214840
0.210940
0.214840
0.220700
0.224610
0.224610
0.230470
0.230470
0.234380
0.230470
0.240230
0.240230
0.246090
0.240230
0.259770
0.294920
0.310550
0.310550
0.345700
0.380860
0.384770
0.349610
0.335940
0.285160
0.304690
0.294920
0.250000
0.205080
0.179690
0.175780
0.166020
0.169920
0.160160
0.160160
0.166020
0.169920
0.166020
0.169920
0.189450
0.279300
0.410160
0.509770
0.550780
0.201170
0.041016
0.134770
0.156250
0.185550
0.195310
0.201170
0.201170
0.201170
0.205080
0.210940
0.214840
0.220700
0.230470
0.224610
0.230470
0.234380
0.246090
0.250000
0.255860
0.259770
0.275390
0.275390
0.285160
0.285160
0.291020
0.279300
0.269530
0.250000
0.230470
0.205080
0.189450
0.169920
0.160160
0.160160
0.175780
0.195310
0.205080
0.214840
0.220700
0.230470
0.224610
0.230470
0.230470
0.230470
0.224610
0.230470
0.230470
0.230470
0.230470
0.230470
0.230470
0.240230
0.234380
0.240230
0.269530
0.304690
0.310550
0.324220
0.365230
0.384770
0.371090
0.345700
0.300780
0.275390
0.294920
0.265620
0.220700
0.185550
0.169920
0.166020
0.160160
0.156250
0.160160
0.156250
0.160160
0.160160
0.160160
0.166020
0.214840
0.339840
0.455080
0.525390
0.400390
0.050781
0.025391
0.140620
0.169920
0.185550
0.189450
0.201170
0.201170
0.205080
0.205080
0.214840
0.214840
0.224610
0.224610
0.240230
0.234380
0.246090
0.250000
0.255860
0.259770
0.275390
0.275390
0.285160
0.291020
0.291020
0.285160
0.279300
0.265620
0.246090
0.224610
0.201170
0.179690
0.166020
0.166020
0.175780
0.189450
0.205080
0.220700
0.224610
0.230470
0.230470
0.230470
0.230470
0.230470
0.234380
0.240230
0.246090
0.240230
0.250000
0.255860
0.250000
0.246090
0.240230
0.234380
0.255860
0.294920
0.310550
0.310550
0.349610
0.375000
0.384770
0.355470
0.335940
0.285160
0.310550
0.285160
0.240230
0.201170
0.185550
0.179690
0.175780
0.166020
0.166020
0.160160
0.166020
0.166020
0.166020
0.169920
0.195310
0.279300
0.419920
0.494140
0.529300
0.214840
0.044922
0.140620
0.169920
0.195310
0.205080
0.205080
0.205080
0.220700
0.220700
0.230470
0.224610
0.230470
0.240230
0.246090
0.246090
0.255860
0.259770
0.269530
0.275390
0.275390
0.279300
0.279300
0.294920
0.300780
0.304690
0.300780
0.285160
0.269530
0.250000
0.224610
0.205080
0.179690
0.169920
0.166020
0.185550
0.201170
0.210940
0.224610
0.230470
0.230470
0.230470
0.234380
0.230470
0.230470
0.230470
0.230470
0.230470
0.240230
0.240230
0.240230
0.240230
0.240230
0.240230
0.265620
0.294920
0.304690
0.310550
0.349610
0.375000
0.380860
0.349610
0.330080
0.285160
0.294920
0.269530
0.224610
0.189450
0.179690
0.175780
0.160160
0.150390
0.156250
0.150390
0.156250
0.160160
0.150390
0.160160
0.175780
0.269530
0.404300
0.494140
0.525390
0.156250
0.035156
0.134770
0.150390
0.169920
0.175780
0.185550
0.185550
0.189450
0.189450
0.195310
0.201170
0.205080
0.210940
0.210940
0.214840
0.214840
0.230470
0.230470
0.240230
0.250000
0.255860
0.255860
0.259770
0.265620
0.269530
0.255860
0.246090
0.220700
0.210940
0.185550
0.169920
0.150390
0.150390
0.150390
0.166020
0.179690
0.195310
0.205080
0.205080
0.214840
0.210940
0.220700
0.214840
0.220700
0.214840
0.224610
0.224610
0.224610
0.224610
0.230470
0.224610
0.230470
0.230470
0.255860
0.285160
0.294920
0.291020
0.339840
0.371090
0.365230
0.330080
0.310550
0.269530
0.285160
0.265620
0.220700
0.179690
0.166020
0.169920
0.160160
0.150390
0.144530
0.144530
0.140620
0.144530
0.150390
0.156250
0.175780
0.275390
0.404300
0.519530
0.570310
0.205080
0.089844
0.175780
0.160160
0.169920
0.175780
0.166020
0.175780
0.179690
0.175780
0.189450
0.195310
0.201170
0.210940
0.205080
0.214840
0.214840
0.230470
0.230470
0.240230
0.234380
0.250000
0.255860
0.250000
0.255860
0.255860
0.246090
0.230470
0.214840
0.185550
0.160160
0.150390
0.134770
0.134770
0.140620
0.150390
0.169920
0.179690
0.195310
0.205080
0.210940
0.205080
0.220700
0.220700
0.224610
0.220700
0.220700
0.230470
0.230470
0.224610
0.230470
0.230470
0.230470
0.234380
0.265620
0.300780
0.300780
0.314450
0.349610
0.371090
0.355470
0.330080
0.285160
0.275390
0.294920
0.255860
0.205080
0.179690
0.169920
0.166020
0.156250
0.156250
0.150390
0.156250
0.156250
0.160160
0.156250
0.160160
0.201170
0.324220
0.455080
0.595700
0.455080
0.115230
0.099609
0.175780
0.160160
0.166020
0.169920
0.166020
0.169920
0.179690
0.185550
0.179690
0.175780
0.189450
0.195310
0.201170
0.205080
0.205080
0.214840
0.224610
0.230470
0.230470
0.240230
0.250000
0.255860
0.255860
0.250000
0.230470
0.210940
0.189450
0.166020
0.156250
0.134770
0.125000
0.121090
0.134770
0.160160
0.175780
0.185550
0.205080
0.205080
0.220700
0.224610
0.220700
0.224610
0.224610
0.230470
0.230470
0.230470
0.234380
0.240230
0.240230
0.246090
0.240230
0.255860
0.279300
0.304690
0.300780
0.335940
0.365230
0.375000
0.349610
0.330080
0.279300
0.275390
0.300780
0.255860
0.205080
0.179690
0.166020
0.166020
0.160160
0.160160
0.160160
0.160160
0.166020
0.160160
0.166020
0.160160
0.224610
0.365230
0.470700
0.535160
0.335940
0.041016
0.099609
0.144530
0.175780
0.185550
0.195310
0.189450
0.201170
0.205080
0.210940
0.210940
0.214840
0.220700
0.230470
0.234380
0.240230
0.250000
0.255860
0.265620
0.269530
0.275390
0.275390
0.285160
0.285160
0.291020
0.279300
0.275390
0.259770
0.246090
0.224610
0.201170
0.179690
0.166020
0.169920
0.175780
0.179690
0.195310
0.205080
0.210940
0.210940
0.220700
0.210940
0.214840
0.220700
0.224610
0.230470
0.224610
0.230470
0.230470
0.230470
0.230470
0.230470
0.230470
0.250000
0.285160
0.300780
0.304690
0.349610
0.375000
0.384770
0.345700
0.310550
0.275390
0.294920
0.275390
0.230470
0.195310
0.175780
0.166020
0.166020
0.160160
0.156250
0.160160
0.150390
0.160160
0.160160
0.160160
0.185550
0.291020
0.419920
0.500000
0.525390
0.150390
0.035156
0.130860
0.144530
0.179690
0.185550
0.189450
0.195310
0.201170
0.205080
0.210940
0.214840
0.220700
0.224610
0.230470
0.230470
0.234380
0.250000
0.255860
0.259770
0.259770
0.275390
0.275390
0.285160
0.291020
0.291020
0.275390
0.265620
0.246090
0.230470
0.210940
0.189450
0.166020
0.169920
0.169920
0.179690
0.185550
0.205080
0.210940
0.214840
0.220700
0.214840
0.220700
0.220700
0.224610
0.224610
0.230470
0.230470
0.234380
0.240230
0.240230
0.234380
0.246090
0.255860
0.294920
0.310550
0.304690
0.339840
0.380860
0.384770
0.349610
0.324220
0.279300
0.300780
0.279300
0.240230
0.195310
0.179690
0.166020
0.160160
0.160160
0.160160
0.150390
0.160160
0.160160
0.166020
0.160160
0.175780
0.240230
0.384770
0.474610
0.515620
0.259770
0.025391
0.111330
0.156250
0.179690
0.195310
0.195310
0.195310
0.205080
0.205080
0.210940
0.214840
0.220700
0.214840
0.224610
0.224610
0.234380
0.234380
0.246090
0.250000
0.255860
0.259770
0.275390
0.275390
0.285160
0.279300
0.275390
0.265620
0.255860
0.234380
0.210940
0.185550
0.169920
0.160160
0.166020
0.175780
0.179690
0.201170
0.205080
0.220700
0.220700
0.224610
0.224610
0.230470
0.230470
0.240230
0.234380
0.246090
0.240230
0.234380
0.240230
0.246090
0.250000
0.265620
0.294920
0.310550
0.314450
0.349610
0.380860
0.380860
0.355470
0.330080
0.294920
0.310550
0.291020
0.240230
0.201170
0.179690
0.179690
0.169920
0.169920
0.160160
0.160160
0.160160
0.156250
0.156250
0.160160
0.175780
0.255860
0.394530
0.490230
0.539060
0.224610
0.054688
0.150390
0.169920
0.185550
0.189450
0.185550
0.189450
0.195310
0.205080
0.205080
0.210940
0.210940
0.214840
0.220700
0.230470
0.230470
0.234380
0.234380
0.250000
0.255860
0.259770
0.265620
0.255860
0.275390
0.265620
0.255860
0.250000
0.230470
0.210940
0.185550
0.166020
0.156250
0.144530
0.156250
0.160160
0.179690
0.195310
0.214840
0.210940
0.220700
0.220700
0.214840
0.214840
0.224610
0.220700
0.220700
0.220700
0.224610
0.224610
0.230470
0.230470
0.230470
0.250000
0.291020
0.294920
0.300780
0.345700
0.371090
0.375000
0.345700
0.324220
0.285160
0.300780
0.275390
0.240230
0.201170
0.179690
0.175780
0.175780
0.160160
0.160160
0.166020
0.166020
0.166020
0.169920
0.175780
0.169920
0.279300
0.425780
0.550780
0.589840
0.205080
0.099609
0.189450
0.175780
0.195310
0.189450
0.189450
0.189450
0.201170
0.195310
0.201170
0.201170
0.205080
0.210940
0.214840
0.224610
0.230470
0.230470
0.240230
0.250000
0.255860
0.246090
0.255860
0.265620
0.265620
0.269530
0.250000
0.230470
0.210940
0.189450
0.166020
0.144530
0.134770
0.134770
0.144530
0.175780
0.185550
0.201170
0.214840
0.224610
0.230470
0.230470
0.224610
0.230470
0.240230
0.230470
0.230470
0.240230
0.240230
0.246090
0.246090
0.240230
0.255860
0.279300
0.300780
0.294920
0.330080
0.365230
0.371090
0.349610
0.330080
0.285160
0.300780
0.275390
0.234380
0.189450
0.175780
0.166020
0.160160
0.156250
0.156250
0.156250
0.160160
0.156250
0.160160
0.160160
0.169920
0.246090
0.390620
0.515620
0.583980
0.304690
0.085938
0.166020
0.160160
0.175780
0.179690
0.179690
0.185550
0.185550
0.189450
0.201170
0.205080
0.205080
0.214840
0.220700
0.230470
0.234380
0.240230
0.240230
0.250000
0.255860
0.255860
0.259770
0.275390
0.275390
0.275390
0.269530
0.255860
0.240230
0.220700
0.201170
0.185550
0.166020
0.160160
0.160160
0.179690
0.195310
0.214840
0.224610
0.234380
0.240230
0.240230
0.240230
0.234380
0.240230
0.234380
0.246090
0.240230
0.246090
0.246090
0.255860
0.255860
0.259770
0.291020
0.324220
0.330080
0.345700
0.380860
0.394530
0.371090
0.349610
0.304690
0.294920
0.310550
0.275390
0.224610
0.195310
0.189450
0.179690
0.179690
0.179690
0.169920
0.175780
0.179690
0.175780
0.179690
0.185550
0.234380
0.355470
0.470700
0.539060
0.400390
0.060547
0.044922
0.150390
0.175780
0.195310
0.189450
0.195310
0.205080
0.210940
0.214840
0.220700
0.224610
0.230470
0.230470
0.246090
0.250000
0.255860
0.259770
0.269530
0.265620
0.275390
0.285160
0.294920
0.294920
0.300780
0.291020
0.285160
0.259770
0.250000
0.224610
0.201170
0.179690
0.169920
0.169920
0.179690
0.195310
0.205080
0.214840
0.220700
0.224610
0.230470
0.230470
0.230470
0.234380
0.234380
0.240230
0.240230
0.234380
0.240230
0.250000
0.240230
0.246090
0.269530
0.304690
0.310550
0.320310
0.365230
0.384770
0.390620
0.349610
0.314450
0.285160
0.300780
0.275390
0.230470
0.189450
0.179690
0.169920
0.175780
0.160160
0.160160
0.160160
0.166020
0.166020
0.169920
0.166020
0.195310
0.300780
0.425780
0.500000
0.515620
0.105470
0.031250
0.134770
0.166020
0.195310
0.201170
0.201170
0.205080
0.205080
0.210940
0.214840
0.220700
0.230470
0.230470
0.240230
0.240230
0.250000
0.255860
0.259770
0.269530
0.265620
0.275390
0.279300
0.291020
0.291020
0.279300
0.275390
0.259770
0.246090
0.224610
0.205080
0.185550
0.175780
0.175780
0.179690
0.189450
0.205080
0.210940
0.214840
0.220700
0.220700
0.224610
0.224610
0.224610
0.230470
0.230470
0.234380
0.240230
0.234380
0.240230
0.234380
0.240230
0.255860
0.300780
0.310550
0.304690
0.355470
0.384770
0.394530
0.359380
0.324220
0.275390
0.300780
0.279300
0.230470
0.189450
0.179690
0.169920
0.160160
0.160160
0.156250
0.160160
0.160160
0.156250
0.160160
0.160160
0.185550
0.265620
0.404300
0.490230
0.519530
0.195310
0.035156
0.125000
0.156250
0.185550
0.195310
0.195310
0.195310
0.205080
0.205080
0.210940
0.210940
0.220700
0.220700
0.230470
0.230470
0.246090
0.250000
0.255860
0.259770
0.275390
0.279300
0.279300
0.285160
0.285160
0.275390
0.275390
0.265620
0.246090
0.224610
0.201170
0.179690
0.160160
0.160160
0.166020
0.179690
0.185550
0.201170
0.210940
0.214840
0.220700
0.224610
0.214840
0.214840
0.220700
0.224610
0.230470
0.230470
0.230470
0.230470
0.230470
0.230470
0.234380
0.265620
0.294920
0.300780
0.320310
0.355470
0.375000
0.359380
0.339840
0.294920
0.279300
0.294920
0.265620
0.210940
0.179690
0.169920
0.160160
0.156250
0.160160
0.160160
0.156250
0.160160
0.160160
0.160160
0.160160
0.195310
0.304690
0.439450
0.544920
0.464840
0.115230
0.064453
0.169920
0.166020
0.179690
0.179690
0.179690
0.185550
0.195310
0.195310
0.189450
0.201170
0.201170
0.210940
0.214840
0.220700
0.220700
0.230470
0.230470
0.234380
0.250000
0.250000
0.255860
0.255860
0.259770
0.255860
0.246090
0.230470
0.210940
0.185550
0.166020
0.140620
0.130860
0.125000
0.144530
0.160160
0.179690
0.195310
0.214840
0.220700
0.224610
0.230470
0.224610
0.230470
0.230470
0.230470
0.230470
0.230470
0.230470
0.230470
0.234380
0.246090
0.259770
0.300780
0.300780
0.310550
0.339840
0.371090
0.365230
0.349610
0.310550
0.279300
0.294920
0.279300
0.240230
0.205080
0.179690
0.175780
0.166020
0.166020
0.169920
0.166020
0.175780
0.166020
0.166020
0.169920
0.195310
0.279300
0.419920
0.554690
0.609380
0.220700
0.115230
0.189450
0.175780
0.179690
0.179690
0.185550
0.185550
0.189450
0.201170
0.201170
0.205080
0.201170
0.205080
0.214840
0.205080
0.214840
0.230470
0.234380
0.234380
0.250000
0.255860
0.255860
0.255860
0.259770
0.255860
0.250000
0.230470
0.205080
0.179690
0.160160
0.144530
0.134770
0.134770
0.140620
0.156250
0.175780
0.185550
0.201170
0.210940
0.214840
0.224610
0.220700
0.224610
0.220700
0.224610
0.220700
0.224610
0.224610
0.230470
0.224610
0.224610
0.230470
0.275390
0.300780
0.300780
0.320310
0.349610
0.371090
0.345700
0.320310
0.275390
0.285160
0.275390
0.240230
0.201170
0.175780
0.166020
0.160160
0.156250
0.160160
0.144530
0.156250
0.150390
0.150390
0.156250
0.166020
0.224610
0.371090
0.484380
0.574220
0.339840
0.064453
0.130860
0.160160
0.166020
0.175780
0.179690
0.179690
0.189450
0.195310
0.201170
0.205080
0.210940
0.210940
0.224610
0.220700
0.230470
0.234380
0.250000
0.250000
0.255860
0.259770
0.265620
0.269530
0.275390
0.275390
0.275390
0.255860
0.246090
0.224610
0.205080
0.179690
0.166020
0.160160
0.169920
0.179690
0.189450
0.210940
0.220700
0.230470
0.230470
0.240230
0.240230
0.246090
0.246090
0.255860
0.255860
0.255860
0.255860
0.255860
0.255860
0.255860
0.255860
0.285160
0.320310
0.324220
0.335940
0.375000
0.394530
0.384770
0.355470
0.314450
0.294920
0.300780
0.279300
0.230470
0.189450
0.179690
0.175780
0.166020
0.169920
0.166020
0.166020
0.166020
0.175780
0.169920
0.175780
0.195310
0.300780
0.425780
0.519530
0.535160
0.166020
0.050781
0.134770
0.169920
0.195310
0.205080
0.205080
0.210940
0.205080
0.210940
0.214840
0.224610
0.220700
0.230470
0.230470
0.234380
0.240230
0.246090
0.250000
0.259770
0.269530
0.275390
0.275390
0.285160
0.279300
0.275390
0.265620
0.255860
0.246090
0.224610
0.195310
0.169920
0.160160
0.160160
0.160160
0.179690
0.201170
0.210940
0.224610
0.224610
0.224610
0.230470
0.230470
0.224610
0.230470
0.230470
0.230470
0.224610
0.224610
0.224610
0.224610
0.230470
0.250000
0.291020
0.300780
0.304690
0.339840
0.371090
0.375000
0.339840
0.300780
0.269530
0.279300
0.259770
0.214840
0.175780
0.156250
0.150390
0.140620
0.140620
0.134770
0.134770
0.140620
0.144530
0.150390
0.144530
0.166020
0.250000
0.380860
0.464840
0.505860
0.201170
0.019531
0.105470
0.134770
0.160160
0.175780
0.179690
0.185550
0.185550
0.195310
0.201170
0.205080
0.210940
0.214840
0.224610
0.230470
0.246090
0.250000
0.255860
0.255860
0.255860
0.259770
0.275390
0.275390
0.279300
0.275390
0.269530
0.259770
0.246090
0.230470
0.205080
0.179690
0.166020
0.160160
0.175780
0.175780
0.195310
0.205080
0.210940
0.214840
0.220700
0.220700
0.220700
0.224610
0.220700
0.220700
0.220700
0.230470
0.230470
0.230470
0.230470
0.230470
0.250000
0.291020
0.300780
0.304690
0.339840
0.371090
0.380860
0.355470
0.320310
0.275390
0.291020
0.275390
0.234380
0.201170
0.175780
0.166020
0.160160
0.160160
0.156250
0.160160
0.156250
0.160160
0.160160
0.156250
0.169920
0.246090
0.380860
0.484380
0.544920
0.265620
0.064453
0.150390
0.166020
0.175780
0.185550
0.179690
0.185550
0.185550
0.185550
0.195310
0.205080
0.214840
0.214840
0.214840
0.220700
0.230470
0.230470
0.234380
0.240230
0.246090
0.255860
0.265620
0.265620
0.275390
0.269530
0.265620
0.246090
0.230470
0.214840
0.195310
0.169920
0.160160
0.150390
0.166020
0.179690
0.195310
0.205080
0.214840
0.220700
0.224610
0.230470
0.230470
0.230470
0.230470
0.230470
0.230470
0.234380
0.234380
0.240230
0.234380
0.250000
0.259770
0.294920
0.300780
0.314450
0.349610
0.375000
0.380860
0.345700
0.314450
0.285160
0.300780
0.269530
0.220700
0.185550
0.169920
0.166020
0.169920
0.160160
0.160160
0.160160
0.160160
0.169920
0.175780
0.166020
0.189450
0.294920
0.449220
0.574220
0.609380
0.185550
0.111330
0.205080
0.179690
0.195310
0.195310
0.179690
0.195310
0.205080
0.205080
0.210940
0.210940
0.210940
0.214840
0.224610
0.230470
0.224610
0.224610
0.230470
0.230470
0.246090
0.250000
0.259770
0.255860
0.259770
0.265620
0.250000
0.230470
0.214840
0.185550
0.166020
0.156250
0.140620
0.134770
0.150390
0.169920
0.185550
0.195310
0.205080
0.214840
0.224610
0.224610
0.220700
0.224610
0.224610
0.230470
0.224610
0.224610
0.220700
0.224610
0.224610
0.240230
0.269530
0.304690
0.320310
0.339840
0.365230
0.371090
0.345700
0.320310
0.269530
0.294920
0.304690
0.259770
0.214840
0.185550
0.189450
0.185550
0.175780
0.166020
0.166020
0.166020
0.175780
0.166020
0.166020
0.185550
0.259770
0.384770
0.535160
0.654300
0.429690
0.160160
0.224610
0.240230
0.201170
0.205080
0.201170
0.195310
0.201170
0.205080
0.201170
0.205080
0.195310
0.205080
0.205080
0.205080
0.210940
0.220700
0.210940
0.220700
0.220700
0.230470
0.230470
0.240230
0.240230
0.240230
0.230470
0.224610
0.205080
0.189450
0.175780
0.160160
0.140620
0.140620
0.156250
0.169920
0.185550
0.201170
0.210940
0.220700
0.224610
0.230470
0.224610
0.220700
0.224610
0.230470
0.230470
0.230470
0.230470
0.230470
0.230470
0.240230
0.265620
0.294920
0.300780
0.310550
0.355470
0.371090
0.355470
0.335940
0.285160
0.275390
0.291020
0.255860
0.201170
0.175780
0.160160
0.150390
0.140620
0.140620
0.140620
0.144530
0.144530
0.150390
0.156250
0.160160
0.201170
0.324220
0.445310
0.535160
0.410160
0.076172
0.035156
0.134770
0.160160
0.179690
0.189450
0.195310
0.195310
0.195310
0.205080
0.205080
0.214840
0.220700
0.224610
0.224610
0.230470
0.240230
0.240230
0.246090
0.250000
0.255860
0.250000
0.259770
0.255860
0.265620
0.265620
0.255860
0.246090
0.230470
0.205080
0.185550
0.160160
0.156250
0.156250
0.160160
0.179690
0.195310
0.205080
0.214840
0.214840
0.220700
0.224610
0.230470
0.230470
0.234380
0.230470
0.234380
0.234380
0.240230
0.234380
0.230470
0.255860
0.294920
0.310550
0.304690
0.349610
0.375000
0.390620
0.359380
0.324220
0.285160
0.300780
0.275390
0.224610
0.189450
0.175780
0.160160
0.156250
0.150390
0.144530
0.150390
0.144530
0.144530
0.156250
0.160160
0.156250
0.250000
0.390620
0.474610
0.505860
0.189450
0.035156
0.125000
0.144530
0.175780
0.179690
0.189450
0.195310
0.201170
0.201170
0.210940
0.210940
0.220700
0.220700
0.230470
0.230470
0.234380
0.246090
0.255860
0.255860
0.259770
0.269530
0.275390
0.279300
0.279300
0.285160
0.265620
0.255860
0.234380
0.220700
0.189450
0.175780
0.160160
0.156250
0.160160
0.175780
0.185550
0.201170
0.205080
0.224610
0.230470
0.230470
0.224610
0.230470
0.230470
0.230470
0.234380
0.230470
0.234380
0.234380
0.240230
0.250000
0.285160
0.300780
0.304690
0.339840
0.375000
0.384770
0.359380
0.339840
0.291020
0.300780
0.291020
0.246090
0.205080
0.175780
0.166020
0.166020
0.160160
0.156250
0.160160
0.160160
0.160160
0.166020
0.166020
0.175780
0.250000
0.390620
0.474610
0.519530
0.275390
0.044922
0.125000
0.160160
0.175780
0.201170
0.195310
0.205080
0.205080
0.214840
0.220700
0.224610
0.224610
0.230470
0.230470
0.240230
0.246090
0.250000
0.255860
0.259770
0.269530
0.275390
0.279300
0.285160
0.291020
0.285160
0.285160
0.275390
0.255860
0.230470
0.210940
0.185550
0.166020
0.160160
0.169920
0.179690
0.201170
0.205080
0.214840
0.224610
0.220700
0.230470
0.224610
0.220700
0.224610
0.224610
0.220700
0.230470
0.230470
0.240230
0.240230
0.250000
0.279300
0.304690
0.300780
0.335940
0.365230
0.390620
0.365230
0.339840
0.291020
0.279300
0.300780
0.255860
0.205080
0.189450
0.175780
0.169920
0.160160
0.160160
0.160160
0.160160
0.166020
0.160160
0.166020
0.169920
0.220700
0.355470
0.460940
0.535160
0.371090
0.050781
0.099609
0.150390
0.175780
0.189450
0.195310
0.195310
0.205080
0.201170
0.205080
0.210940
0.220700
0.224610
0.230470
0.230470
0.234380
0.246090
0.250000
0.255860
0.255860
0.255860
0.259770
0.269530
0.275390
0.275390
0.265620
0.255860
0.230470
0.210940
0.195310
0.179690
0.160160
0.160160
0.160160
0.169920
0.179690
0.195310
0.210940
0.214840
0.214840
0.210940
0.220700
0.214840
0.230470
0.230470
0.230470
0.230470
0.240230
0.234380
0.246090
0.255860
0.285160
0.300780
0.310550
0.335940
0.375000
0.384770
0.359380
0.335940
0.285160
0.294920
0.279300
0.240230
0.205080
0.175780
0.169920
0.160160
0.160160
0.160160
0.156250
0.160160
0.160160
0.160160
0.160160
0.160160
0.214840
0.359380
0.470700
0.564450
0.349610
0.080078
0.150390
0.175780
0.160160
0.179690
0.185550
0.179690
0.189450
0.201170
0.210940
0.214840
0.214840
0.214840
0.230470
0.224610
0.230470
0.230470
0.246090
0.250000
0.255860
0.255860
0.255860
0.255860
0.265620
0.269530
0.255860
0.240230
0.230470
0.205080
0.179690
0.160160
0.156250
0.156250
0.160160
0.169920
0.179690
0.201170
0.205080
0.220700
0.230470
0.234380
0.230470
0.230470
0.230470
0.230470
0.230470
0.230470
0.230470
0.240230
0.230470
0.250000
0.275390
0.300780
0.300780
0.330080
0.365230
0.380860
0.355470
0.335940
0.291020
0.279300
0.291020
0.246090
0.205080
0.175780
0.169920
0.160160
0.160160
0.160160
0.160160
0.156250
0.160160
0.160160
0.166020
0.179690
0.246090
0.365230
0.505860
0.615230
0.380860
0.121090
0.179690
0.201170
0.175780
0.185550
0.179690
0.179690
0.189450
0.201170
0.195310
0.201170
0.205080
0.210940
0.205080
0.214840
0.224610
0.230470
0.234380
0.240230
0.240230
0.250000
0.255860
0.259770
0.255860
0.255860
0.240230
0.230470
0.205080
0.185550
0.166020
0.144530
0.134770
0.130860
0.140620
0.160160
0.175780
0.185550
0.201170
0.205080
0.214840
0.214840
0.224610
0.214840
0.220700
0.220700
0.230470
0.224610
0.230470
0.230470
0.230470
0.234380
0.259770
0.300780
0.300780
0.304690
0.349610
0.380860
0.375000
0.355470
0.330080
0.294920
0.300780
0.291020
0.234380
0.201170
0.179690
0.179690
0.169920
0.166020
0.160160
0.160160
0.160160
0.166020
0.169920
0.166020
0.185550
0.279300
0.419920
0.519530
0.554690
0.205080
0.064453
0.144530
0.160160
0.185550
0.201170
0.205080
0.205080
0.214840
0.214840
0.214840
0.214840
0.220700
0.230470
0.224610
0.234380
0.240230
0.250000
0.250000
0.255860
0.269530
0.275390
0.275390
0.275390
0.275390
0.275390
0.275390
0.259770
0.240230
0.220700
0.205080
0.179690
0.169920
0.166020
0.179690
0.189450
0.205080
0.214840
0.230470
0.230470
0.234380
0.230470
0.230470
0.230470
0.230470
0.230470
0.230470
0.234380
0.230470
0.240230
0.240230
0.246090
0.269530
0.304690
0.310550
0.320310
0.365230
0.384770
0.365230
0.339840
0.294920
0.275390
0.294920
0.275390
0.220700
0.185550
0.166020
0.160160
0.160160
0.160160
0.156250
0.156250
0.150390
0.156250
0.160160
0.156250
0.185550
0.294920
0.425780
0.494140
0.515620
0.121090
0.031250
0.125000
0.150390
0.175780
0.189450
0.185550
0.195310
0.195310
0.205080
0.210940
0.220700
0.214840
0.224610
0.224610
0.230470
0.240230
0.255860
0.255860
0.269530
0.275390
0.275390
0.285160
0.291020
0.294920
0.285160
0.275390
0.265620
0.250000
0.230470
0.205080
0.179690
0.175780
0.169920
0.175780
0.179690
0.201170
0.205080
0.205080
0.214840
0.220700
0.220700
0.224610
0.220700
0.214840
0.224610
0.220700
0.224610
0.230470
0.230470
0.224610
0.230470
0.250000
0.291020
0.300780
0.304690
0.349610
0.371090
0.375000
0.339840
0.304690
0.275390
0.291020
0.269530
0.220700
0.185550
0.169920
0.169920
0.160160
0.160160
0.160160
0.160160
0.156250
0.160160
0.160160
0.166020
0.179690
0.259770
0.400390
0.474610
0.519530
0.195310
0.031250
0.125000
0.160160
0.179690
0.201170
0.205080
0.205080
0.205080
0.214840
0.214840
0.220700
0.224610
0.230470
0.234380
0.246090
0.250000
0.250000
0.255860
0.259770
0.275390
0.275390
0.285160
0.285160
0.300780
0.294920
0.285160
0.269530
0.255860
0.230470
0.205080
0.179690
0.175780
0.175780
0.179690
0.189450
0.205080
0.214840
0.224610
0.230470
0.230470
0.230470
0.230470
0.230470
0.230470
0.240230
0.240230
0.246090
0.234380
0.240230
0.234380
0.250000
0.255860
0.294920
0.304690
0.310550
0.345700
0.375000
0.380860
0.345700
0.320310
0.275390
0.294920
0.279300
0.234380
0.195310
0.175780
0.169920
0.160160
0.156250
0.156250
0.150390
0.144530
0.150390
0.160160
0.156250
0.169920
0.230470
0.365230
0.460940
0.509770
0.275390
0.025391
0.115230
0.150390
0.175780
0.185550
0.189450
0.185550
0.201170
0.205080
0.205080
0.210940
0.220700
0.220700
0.230470
0.230470
0.246090
0.250000
0.259770
0.259770
0.269530
0.275390
0.275390
0.279300
0.291020
0.291020
0.275390
0.265620
0.250000
0.230470
0.210940
0.185550
0.179690
0.175780
0.169920
0.179690
0.205080
0.214840
0.224610
0.234380
0.240230
0.234380
0.230470
0.230470
0.230470
0.234380
0.234380
0.234380
0.230470
0.234380
0.234380
0.240230
0.250000
0.291020
0.304690
0.314450
0.339840
0.371090
0.380860
0.349610
0.320310
0.285160
0.300780
0.279300
0.246090
0.201170
0.175780
0.169920
0.175780
0.160160
0.160160
0.156250
0.160160
0.160160
0.160160
0.166020
0.175780
0.214840
0.349610
0.455080
0.554690
0.380860
0.064453
0.060547
0.166020
0.175780
0.185550
0.189450
0.189450
0.205080
0.201170
0.205080
0.210940
0.214840
0.220700
0.224610
0.230470
0.234380
0.234380
0.255860
0.255860
0.259770
0.265620
0.275390
0.275390
0.275390
0.275390
0.269530
0.255860
0.246090
0.224610
0.195310
0.175780
0.166020
0.160160
0.156250
0.169920
0.185550
0.210940
0.214840
0.224610
0.230470
0.230470
0.224610
0.230470
0.224610
0.224610
0.230470
0.230470
0.230470
0.234380
0.240230
0.230470
0.240230
0.275390
0.300780
0.304690
0.324220
0.359380
0.371090
0.345700
0.324220
0.285160
0.279300
0.291020
0.259770
0.210940
0.179690
0.175780
0.166020
0.160160
0.160160
0.160160
0.160160
0.160160
0.166020
0.160160
0.160160
0.205080
0.324220
0.455080
0.589840
0.449220
0.111330
0.099609
0.195310
0.169920
0.179690
0.179690
0.179690
0.179690
0.179690
0.185550
0.185550
0.201170
0.195310
0.214840
0.214840
0.224610
0.220700
0.230470
0.230470
0.230470
0.240230
0.255860
0.250000
0.255860
0.255860
0.255860
0.240230
0.220700
0.201170
0.175780
0.160160
0.140620
0.134770
0.140620
0.160160
0.169920
0.189450
0.195310
0.210940
0.214840
0.214840
0.210940
0.214840
0.220700
0.224610
0.230470
0.230470
0.230470
0.230470
0.230470
0.230470
0.240230
0.259770
0.291020
0.294920
0.310550
0.339840
0.365230
0.345700
0.330080
0.285160
0.275390
0.291020
0.255860
0.210940
0.175780
0.160160
0.160160
0.144530
0.150390
0.144530
0.144530
0.150390
0.150390
0.150390
0.156250
0.185550
0.304690
0.439450
0.589840
0.494140
0.140620
0.099609
0.175780
0.150390
0.160160
0.166020
0.160160
0.169920
0.175780
0.179690
0.179690
0.185550
0.189450
0.189450
0.201170
0.205080
0.214840
0.220700
0.230470
0.234380
0.240230
0.234380
0.250000
0.250000
0.255860
0.250000
0.246090
0.230470
0.210940
0.179690
0.169920
0.150390
0.140620
0.140620
0.156250
0.166020
0.185550
0.201170
0.210940
0.214840
0.220700
0.224610
0.230470
0.230470
0.230470
0.230470
0.234380
0.240230
0.234380
0.240230
0.234380
0.246090
0.269530
0.300780
0.304690
0.324220
0.349610
0.371090
0.359380
0.335940
0.291020
0.269530
0.291020
0.259770
0.205080
0.179690
0.166020
0.160160
0.160160
0.156250
0.156250
0.160160
0.160160
0.160160
0.160160
0.160160
0.195310
0.304690
0.429690
0.519530
0.535160
0.140620
0.044922
0.140620
0.160160
0.185550
0.189450
0.189450
0.201170
0.205080
0.210940
0.214840
0.214840
0.224610
0.230470
0.230470
0.234380
0.240230
0.246090
0.255860
0.255860
0.259770
0.265620
0.275390
0.275390
0.275390
0.275390
0.269530
0.255860
0.246090
0.220700
0.205080
0.179690
0.169920
0.166020
0.175780
0.179690
0.195310
0.205080
0.210940
0.220700
0.224610
0.230470
0.230470
0.224610
0.224610
0.230470
0.230470
0.234380
0.230470
0.230470
0.230470
0.234380
0.246090
0.285160
0.304690
0.310550
0.330080
0.365230
0.375000
0.349610
0.324220
0.279300
0.275390
0.291020
0.246090
0.201170
0.175780
0.160160
0.160160
0.156250
0.160160
0.150390
0.156250
0.150390
0.160160
0.156250
0.160160
0.205080
0.339840
0.445310
0.515620
0.371090
0.044922
0.025391
0.134770
0.160160
0.179690
0.189450
0.189450
0.195310
0.201170
0.205080
0.205080
0.214840
0.224610
0.230470
0.230470
0.234380
0.240230
0.250000
0.250000
0.259770
0.265620
0.269530
0.269530
0.275390
0.275390
0.275390
0.259770
0.250000
0.224610
0.205080
0.175780
0.160160
0.150390
0.150390
0.160160
0.175780
0.189450
0.195310
0.205080
0.205080
0.214840
0.210940
0.220700
0.224610
0.230470
0.230470
0.230470
0.230470
0.230470
0.230470
0.230470
0.234380
0.250000
0.279300
0.300780
0.310550
0.339840
0.371090
0.375000
0.345700
0.320310
0.269530
0.291020
0.279300
0.234380
0.201170
0.175780
0.169920
0.160160
0.160160
0.156250
0.156250
0.156250
0.160160
0.156250
0.160160
0.175780
0.234380
0.371090
0.464840
0.515620
0.320310
0.041016
0.121090
0.160160
0.179690
0.201170
0.195310
0.205080
0.205080
0.210940
0.210940
0.224610
0.224610
0.234380
0.234380
0.246090
0.250000
0.255860
0.255860
0.259770
0.265620
0.275390
0.279300
0.291020
0.294920
0.300780
0.291020
0.275390
0.265620
0.240230
0.214840
0.195310
0.179690
0.175780
0.175780
0.179690
0.201170
0.205080
0.224610
0.230470
0.230470
0.230470
0.234380
0.230470
0.234380
0.234380
0.240230
0.246090
0.250000
0.246090
0.240230
0.246090
0.240230
0.255860
0.294920
0.310550
0.320310
0.335940
0.371090
0.375000
0.339840
0.320310
0.275390
0.291020
0.294920
0.255860
0.210940
0.185550
0.175780
0.169920
0.160160
0.160160
0.160160
0.169920
0.166020
0.169920
0.169920
0.175780
0.214840
0.339840
0.449220
0.529300
0.404300
0.060547
0.041016
0.156250
0.175780
0.201170
0.205080
0.201170
0.210940
0.210940
0.220700
0.220700
0.224610
0.224610
0.230470
0.230470
0.246090
0.246090
0.246090
0.250000
0.259770
0.269530
0.265620
0.275390
0.279300
0.279300
0.275390
0.259770
0.250000
0.224610
0.205080
0.189450
0.169920
0.160160
0.160160
0.175780
0.185550
0.205080
0.214840
0.224610
0.224610
0.224610
0.230470
0.224610
0.214840
0.224610
0.230470
0.224610
0.230470
0.230470
0.230470
0.224610
0.224610
0.234380
0.269530
0.291020
0.304690
0.314450
0.349610
0.365230
0.339840
0.310550
0.275390
0.255860
0.275390
0.250000
0.210940
0.179690
0.169920
0.160160
0.160160
0.160160
0.156250
0.150390
0.156250
0.160160
0.156250
0.160160
0.185550
0.304690
0.429690
0.550780
0.554690
0.125000
0.070312
0.189450
0.169920
0.179690
0.185550
0.189450
0.189450
0.195310
0.195310
0.195310
0.195310
0.205080
0.210940
0.220700
0.224610
0.230470
0.240230
0.234380
0.234380
0.246090
0.250000
0.255860
0.255860
0.255860
0.250000
0.230470
0.224610
0.210940
0.185550
0.160160
0.144530
0.134770
0.140620
0.144530
0.175780
0.189450
0.201170
0.210940
0.214840
0.224610
0.224610
0.224610
0.220700
0.230470
0.220700
0.220700
0.220700
0.230470
0.224610
0.234380
0.224610
0.230470
0.250000
0.285160
0.300780
0.304690
0.324220
0.349610
0.355470
0.324220
0.300780
0.265620
0.291020
0.275390
0.224610
0.189450
0.179690
0.175780
0.175780
0.169920
0.169920
0.166020
0.175780
0.169920
0.175780
0.169920
0.179690
0.246090
0.384770
0.515620
0.615230
0.371090
0.121090
0.195310
0.210940
0.185550
0.179690
0.179690
0.185550
0.189450
0.189450
0.195310
0.195310
0.205080
0.205080
0.205080
0.205080
0.214840
0.214840
0.220700
0.220700
0.230470
0.240230
0.246090
0.250000
0.250000
0.250000
0.240230
0.230470
0.214840
0.189450
0.169920
0.156250
0.134770
0.134770
0.140620
0.160160
0.179690
0.195310
0.210940
0.224610
0.224610
0.230470
0.230470
0.230470
0.230470
0.240230
0.234380
0.240230
0.240230
0.246090
0.240230
0.240230
0.240230
0.255860
0.291020
0.304690
0.310550
0.349610
0.371090
0.375000
0.345700
0.320310
0.279300
0.300780
0.279300
0.234380
0.201170
0.179690
0.169920
0.166020
0.166020
0.166020
0.166020
0.160160
0.166020
0.166020
0.169920
0.175780
0.246090
0.380860
0.480470
0.544920
0.320310
0.044922
0.125000
0.156250
0.175780
0.189450
0.189450
0.195310
0.201170
0.205080
0.201170
0.205080
0.205080
0.214840
0.220700
0.230470
0.230470
0.240230
0.246090
0.255860
0.255860
0.259770
0.255860
0.265620
0.269530
0.259770
0.255860
0.250000
0.230470
0.220700
0.201170
0.175780
0.160160
0.150390
0.156250
0.166020
0.179690
0.189450
0.201170
0.205080
0.214840
0.214840
0.224610
0.214840
0.220700
0.220700
0.224610
0.230470
0.230470
0.230470
0.230470
0.234380
0.234380
0.246090
0.279300
0.300780
0.314450
0.330080
0.365230
0.375000
0.355470
0.335940
0.291020
0.275390
0.294920
0.259770
0.214840
0.179690
0.169920
0.166020
0.160160
0.160160
0.156250
0.160160
0.160160
0.160160
0.160160
0.160160
0.195310
0.320310
0.435550
0.505860
0.394530
0.050781
0.015625
0.130860
0.156250
0.179690
0.179690
0.179690
0.195310
0.195310
0.205080
0.205080
0.210940
0.214840
0.214840
0.220700
0.224610
0.230470
0.234380
0.240230
0.246090
0.255860
0.255860
0.269530
0.269530
0.275390
0.275390
0.259770
0.240230
0.224610
0.205080
0.185550
0.160160
0.156250
0.156250
0.166020
0.175780
0.195310
0.205080
0.210940
0.214840
0.220700
0.214840
0.214840
0.210940
0.220700
0.220700
0.230470
0.230470
0.230470
0.230470
0.230470
0.230470
0.230470
0.240230
0.269530
0.300780
0.304690
0.330080
0.359380
0.371090
0.345700
0.324220
0.275390
0.291020
0.275390
0.246090
0.195310
0.179690
0.166020
0.160160
0.156250
0.160160
0.160160
0.160160
0.160160
0.166020
0.175780
0.169920
0.224610
0.349610
0.460940
0.535160
0.390620
0.064453
0.050781
0.160160
0.185550
0.205080
0.210940
0.210940
0.220700
0.220700
0.224610
0.230470
0.234380
0.234380
0.240230
0.246090
0.250000
0.255860
0.259770
0.269530
0.269530
0.275390
0.285160
0.291020
0.285160
0.291020
0.285160
0.275390
0.255860
0.234380
0.210940
0.189450
0.169920
0.160160
0.160160
0.169920
0.179690
0.189450
0.205080
0.205080
0.210940
0.214840
0.220700
0.210940
0.210940
0.220700
0.224610
0.224610
0.230470
0.230470
0.230470
0.224610
0.224610
0.224610
0.230470
0.250000
0.285160
0.294920
0.304690
0.339840
0.365230
0.349610
0.324220
0.285160
0.255860
0.279300
0.265620
0.224610
0.185550
0.166020
0.160160
0.160160
0.150390
0.150390
0.150390
0.156250
0.150390
0.150390
0.150390
0.169920
0.259770
0.404300
0.484380
0.515620
0.169920
0.031250
0.130860
0.160160
0.179690
0.189450
0.195310
0.195310
0.205080
0.205080
0.210940
0.210940
0.214840
0.214840
0.220700
0.220700
0.224610
0.230470
0.234380
0.246090
0.255860
0.255860
0.265620
0.269530
0.275390
0.269530
0.269530
0.255860
0.234380
0.220700
0.195310
0.175780
0.166020
0.156250
0.160160
0.175780
0.179690
0.201170
0.205080
0.205080
0.205080
0.214840
0.214840
0.220700
0.210940
0.224610
0.220700
0.224610
0.230470
0.230470
0.224610
0.224610
0.224610
0.234380
0.269530
0.294920
0.300780
0.320310
0.355470
0.365230
0.345700
0.320310
0.275390
0.269530
0.285160
0.250000
0.210940
0.179690
0.169920
0.166020
0.166020
0.160160
0.156250
0.160160
0.160160
0.160160
0.160160
0.160160
0.195310
0.314450
0.429690
0.544920
0.455080
0.111330
0.080078
0.179690
0.169920
0.179690
0.179690
0.179690
0.175780
0.185550
0.189450
0.205080
0.201170
0.210940
0.205080
0.220700
0.224610
0.234380
0.234380
0.246090
0.255860
0.255860
0.259770
0.269530
0.275390
0.269530
0.259770
0.255860
0.234380
0.210940
0.189450
0.166020
0.156250
0.140620
0.144530
0.160160
0.175780
0.195310
0.214840
0.224610
0.230470
0.230470
0.230470
0.230470
0.230470
0.230470
0.230470
0.230470
0.234380
0.230470
0.230470
0.230470
0.230470
0.234380
0.246090
0.275390
0.300780
0.300780
0.320310
0.359380
0.375000
0.355470
0.330080
0.294920
0.279300
0.304690
0.265620
0.224610
0.195310
0.189450
0.195310
0.185550
0.175780
0.175780
0.179690
0.179690
0.179690
0.189450
0.195310
0.234380
0.355470
0.484380
0.619140
0.474610
0.144530
0.130860
0.224610
0.201170
0.205080
0.201170
0.201170
0.201170
0.205080
0.205080
0.214840
0.214840
0.214840
0.220700
0.224610
0.230470
0.234380
0.246090
0.255860
0.259770
0.259770
0.269530
0.269530
0.275390
0.265620
0.259770
0.246090
0.230470
0.205080
0.179690
0.156250
0.144530
0.134770
0.140620
0.156250
0.179690
0.195310
0.205080
0.214840
0.224610
0.230470
0.230470
0.230470
0.230470
0.230470
0.234380
0.240230
0.246090
0.250000
0.250000
0.255860
0.255860
0.255860
0.255860
0.285160
0.310550
0.320310
0.330080
0.371090
0.384770
0.375000
0.345700
0.310550
0.294920
0.314450
0.285160
0.246090
0.210940
0.201170
0.189450
0.185550
0.189450
0.179690
0.185550
0.189450
0.195310
0.185550
0.195310
0.220700
0.339840
0.460940
0.550780
0.455080
0.115230
0.060547
0.160160
0.179690
0.205080
0.205080
0.205080
0.205080
0.214840
0.220700
0.230470
0.230470
0.230470
0.234380
0.246090
0.250000
0.250000
0.255860
0.265620
0.275390
0.275390
0.279300
0.275390
0.279300
0.279300
0.279300
0.269530
0.259770
0.246090
0.224610
0.205080
0.179690
0.169920
0.166020
0.179690
0.195310
0.205080
0.214840
0.224610
0.230470
0.230470
0.234380
0.240230
0.230470
0.234380
0.240230
0.246090
0.246090
0.255860
0.255860
0.255860
0.246090
0.250000
0.255860
0.269530
0.314450
0.324220
0.330080
0.365230
0.390620
0.390620
0.355470
0.330080
0.291020
0.314450
0.294920
0.255860
0.214840
0.189450
0.179690
0.175780
0.179690
0.175780
0.175780
0.169920
0.175780
0.175780
0.179690
0.195310
0.279300
0.425780
0.500000
0.539060
0.224610
0.044922
0.140620
0.166020
0.201170
0.205080
0.214840
0.220700
0.224610
0.230470
0.230470
0.230470
0.230470
0.234380
0.230470
0.240230
0.250000
0.255860
0.255860
0.259770
0.259770
0.275390
0.279300
0.285160
0.279300
0.291020
0.279300
0.269530
0.250000
0.230470
0.210940
0.185550
0.166020
0.160160
0.166020
0.175780
0.189450
0.195310
0.210940
0.210940
0.220700
0.214840
0.220700
0.220700
0.230470
0.224610
0.230470
0.224610
0.230470
0.230470
0.230470
0.234380
0.230470
0.230470
0.246090
0.265620
0.300780
0.304690
0.320310
0.359380
0.384770
0.390620
0.349610
0.314450
0.279300
0.294920
0.269530
0.224610
0.185550
0.179690
0.166020
0.166020
0.160160
0.160160
0.156250
0.160160
0.160160
0.166020
0.169920
0.195310
0.300780
0.429690
0.500000
0.515620
0.121090
0.025391
0.140620
0.166020
0.195310
0.205080
0.205080
0.201170
0.205080
0.205080
0.214840
0.214840
0.220700
0.224610
0.230470
0.234380
0.240230
0.246090
0.246090
0.255860
0.259770
0.265620
0.275390
0.279300
0.279300
0.291020
0.275390
0.259770
0.240230
0.220700
0.195310
0.175780
0.156250
0.156250
0.160160
0.179690
0.185550
0.201170
0.210940
0.214840
0.220700
0.214840
0.214840
0.214840
0.220700
0.230470
0.230470
0.224610
0.224610
0.220700
0.224610
0.224610
0.230470
0.224610
0.246090
0.291020
0.300780
0.304690
0.349610
0.371090
0.380860
0.345700
0.310550
0.265620
0.294920
0.265620
0.224610
0.195310
0.179690
0.166020
0.160160
0.150390
0.156250
0.150390
0.150390
0.156250
0.160160
0.166020
0.175780
0.259770
0.384770
0.480470
0.515620
0.189450
0.031250
0.125000
0.144530
0.169920
0.175780
0.179690
0.179690
0.189450
0.195310
0.201170
0.205080
0.210940
0.214840
0.220700
0.224610
0.230470
0.234380
0.234380
0.240230
0.250000
0.255860
0.255860
0.259770
0.265620
0.269530
0.255860
0.246090
0.230470
0.220700
0.201170
0.169920
0.150390
0.156250
0.156250
0.169920
0.179690
0.189450
0.201170
0.205080
0.205080
0.205080
0.210940
0.205080
0.210940
0.214840
0.224610
0.214840
0.220700
0.220700
0.230470
0.230470
0.230470
0.224610
0.230470
0.259770
0.294920
0.300780
0.320310
0.349610
0.365230
0.345700
0.324220
0.279300
0.269530
0.294920
0.250000
0.210940
0.179690
0.166020
0.156250
0.150390
0.144530
0.150390
0.144530
0.140620
0.144530
0.150390
0.144530
0.179690
0.300780
0.425780
0.544920
0.460940
0.115230
0.070312
0.175780
0.169920
0.179690
0.179690
0.179690
0.175780
0.179690
0.185550
0.195310
0.195310
0.201170
0.201170
0.205080
0.210940
0.220700
0.220700
0.230470
0.230470
0.246090
0.240230
0.250000
0.255860
0.255860
0.250000
0.240230
0.224610
0.205080
0.179690
0.160160
0.144530
0.134770
0.134770
0.144530
0.160160
0.175780
0.195310
0.205080
0.210940
0.214840
0.220700
0.214840
0.220700
0.220700
0.230470
0.230470
0.234380
0.230470
0.240230
0.246090
0.240230
0.240230
0.250000
0.275390
0.300780
0.310550
0.320310
0.355470
0.375000
0.365230
0.339840
0.300780
0.279300
0.300780
0.265620
0.220700
0.179690
0.169920
0.166020
0.166020
0.160160
0.160160
0.160160
0.166020
0.160160
0.160160
0.166020
0.205080
0.330080
0.460940
0.564450
0.455080
0.111330
0.070312
0.169920
0.166020
0.195310
0.201170
0.201170
0.201170
0.205080
0.205080
0.214840
0.220700
0.224610
0.224610
0.234380
0.230470
0.240230
0.250000
0.255860
0.259770
0.269530
0.275390
0.279300
0.285160
0.285160
0.275390
0.275390
0.259770
0.246090
0.230470
0.205080
0.185550
0.169920
0.169920
0.179690
0.205080
0.220700
0.234380
0.240230
0.246090
0.240230
0.246090
0.240230
0.246090
0.240230
0.246090
0.246090
0.250000
0.250000
0.246090
0.250000
0.246090
0.250000
0.255860
0.279300
0.310550
0.320310
0.330080
0.365230
0.390620
0.375000
0.345700
0.310550
0.285160
0.304690
0.265620
0.224610
0.189450
0.179690
0.169920
0.169920
0.175780
0.166020
0.166020
0.169920
0.175780
0.160160
0.169920
0.201170
0.324220
0.449220
0.525390
0.439450
0.099609
0.035156
0.150390
0.166020
0.195310
0.201170
0.210940
0.214840
0.224610
0.224610
0.230470
0.230470
0.234380
0.234380
0.240230
0.246090
0.250000
0.255860
0.255860
0.265620
0.275390
0.279300
0.291020
0.294920
0.291020
0.291020
0.279300
0.269530
0.246090
0.230470
0.205080
0.185550
0.175780
0.169920
0.169920
0.189450
0.201170
0.205080
0.214840
0.220700
0.224610
0.220700
0.220700
0.220700
0.224610
0.224610
0.230470
0.234380
0.234380
0.234380
0.234380
0.234380
0.240230
0.230470
0.246090
0.275390
0.304690
0.300780
0.330080
0.371090
0.380860
0.355470
0.335940
0.279300
0.275390
0.291020
0.250000
0.201170
0.179690
0.166020
0.160160
0.150390
0.144530
0.156250
0.144530
0.156250
0.150390
0.160160
0.166020
0.214840
0.349610
0.445310
0.509770
0.349610
0.025391
0.080078
0.134770
0.169920
0.185550
0.189450
0.189450
0.205080
0.205080
0.205080
0.214840
0.224610
0.224610
0.230470
0.230470
0.230470
0.246090
0.246090
0.255860
0.255860
0.269530
0.275390
0.275390
0.275390
0.275390
0.269530
0.265620
0.250000
0.234380
0.214840
0.185550
0.160160
0.156250
0.156250
0.160160
0.169920
0.185550
0.201170
0.205080
0.210940
0.205080
0.210940
0.214840
0.224610
0.224610
0.230470
0.230470
0.230470
0.230470
0.230470
0.230470
0.230470
0.230470
0.230470
0.230470
0.269530
0.294920
0.300780
0.320310
