0.390620
0.410160
0.416020
0.445310
0.435550
0.429690
0.410160
0.400390
0.404300
0.375000
0.365230
0.339840
0.339840
0.324220
0.320310
0.320310
0.320310
0.320310
0.330080
0.375000
0.425780
0.474610
0.654300
0.724610
0.564450
0.355470
0.335940
0.320310
0.320310
0.314450
0.314450
0.304690
0.314450
0.310550
0.310550
0.320310
0.320310
0.324220
0.330080
0.339840
0.349610
0.365230
0.375000
0.384770
0.394530
0.410160
0.416020
0.425780
0.425780
0.429690
0.425780
0.425780
0.429690
0.419920
0.410160
0.400390
0.394530
0.390620
0.384770
0.384770
0.384770
0.384770
0.384770
0.380860
0.390620
0.390620
0.390620
0.384770
0.400390
0.416020
0.425780
0.439450
0.449220
0.435550
0.416020
0.400390
0.404300
0.390620
0.380860
0.349610
0.339840
0.330080
0.324220
0.330080
0.330080
0.324220
0.335940
0.380860
0.419920
0.449220
0.619140
0.699220
0.619140
0.384770
0.339840
0.339840
0.335940
0.339840
0.324220
0.320310
0.320310
0.324220
0.335940
0.335940
0.335940
0.339840
0.339840
0.349610
0.365230
0.371090
0.390620
0.400390
0.410160
0.419920
0.435550
0.435550
0.435550
0.435550
0.439450
0.435550
0.435550
0.429690
0.419920
0.410160
0.394530
0.390620
0.390620
0.375000
0.375000
0.380860
0.380860
0.380860
0.384770
0.380860
0.380860
0.380860
0.384770
0.400390
0.410160
0.429690
0.439450
0.425780
0.410160
0.394530
0.394530
0.384770
0.365230
0.345700
0.330080
0.324220
0.324220
0.324220
0.324220
0.324220
0.335940
0.365230
0.400390
0.429690
0.570310
0.669920
0.675780
0.410160
0.335940
0.335940
0.335940
0.330080
0.335940
0.324220
0.330080
0.330080
0.330080
0.339840
0.339840
0.339840
0.349610
0.355470
0.359380
0.371090
0.390620
0.404300
0.416020
0.419920
0.435550
0.445310
0.455080
0.449220
0.449220
0.455080
0.445310
0.435550
0.425780
0.416020
0.404300
0.394530
0.390620
0.384770
0.380860
0.390620
0.380860
0.390620
0.384770
0.390620
0.380860
0.380860
0.390620
0.400390
0.416020
0.429690
0.439450
0.425780
0.416020
0.404300
0.400390
0.390620
0.375000
0.355470
0.339840
0.330080
0.324220
0.330080
0.339840
0.335940
0.339840
0.365230
0.404300
0.429690
0.539060
0.660160
0.679690
0.439450
0.335940
0.339840
0.339840
0.335940
0.330080
0.324220
0.324220
0.324220
0.335940
0.339840
0.335940
0.339840
0.339840
0.355470
0.365230
0.371090
0.384770
0.400390
0.416020
0.425780
0.435550
0.449220
0.455080
0.455080
0.455080
0.449220
0.445310
0.435550
0.419920
0.410160
0.394530
0.390620
0.375000
0.375000
0.375000
0.375000
0.375000
0.380860
0.390620
0.380860
0.380860
0.375000
0.380860
0.394530
0.410160
0.425780
0.439450
0.429690
0.419920
0.404300
0.400390
0.404300
0.380860
0.359380
0.339840
0.324220
0.324220
0.330080
0.324220
0.324220
0.330080
0.349610
0.394530
0.429690
0.500000
0.640620
0.669920
0.490230
0.339840
0.339840
0.339840
0.339840
0.339840
0.335940
0.320310
0.330080
0.335940
0.335940
0.339840
0.345700
0.349610
0.355470
0.365230
0.375000
0.384770
0.394530
0.404300
0.419920
0.435550
0.449220
0.455080
0.460940
0.464840
0.464840
0.460940
0.445310
0.435550
0.419920
0.404300
0.390620
0.390620
0.384770
0.384770
0.384770
0.384770
0.390620
0.390620
0.390620
0.390620
0.390620
0.390620
0.404300
0.416020
0.435550
0.460940
0.460940
0.439450
0.425780
0.410160
0.410160
0.390620
0.380860
0.359380
0.339840
0.339840
0.339840
0.339840
0.335940
0.339840
0.355470
0.400390
0.435550
0.484380
0.654300
0.734380
0.609380
0.390620
0.355470
0.339840
0.335940
0.335940
0.330080
0.324220
0.324220
0.324220
0.324220
0.330080
0.330080
0.335940
0.339840
0.355470
0.365230
0.375000
0.380860
0.390620
0.394530
0.410160
0.425780
0.429690
0.435550
0.435550
0.435550
0.435550
0.435550
0.419920
0.410160
0.394530
0.384770
0.375000
0.375000
0.371090
0.371090
0.371090
0.371090
0.371090
0.380860
0.380860
0.384770
0.384770
0.390620
0.410160
0.425780
0.449220
0.460940
0.435550
0.419920
0.410160
0.404300
0.394530
0.380860
0.359380
0.330080
0.330080
0.324220
0.324220
0.324220
0.320310
0.324220
0.371090
0.410160
0.455080
0.599610
0.720700
0.724610
0.416020
0.339840
0.324220
0.310550
0.314450
0.310550
0.304690
0.310550
0.304690
0.310550
0.304690
0.304690
0.314450
0.320310
0.324220
0.339840
0.349610
0.359380
0.365230
0.380860
0.390620
0.400390
0.416020
0.419920
0.416020
0.416020
0.419920
0.416020
0.404300
0.394530
0.384770
0.380860
0.375000
0.375000
0.371090
0.365230
0.365230
0.365230
0.365230
0.365230
0.365230
0.375000
0.380860
0.390620
0.400390
0.419920
0.429690
0.439450
0.429690
0.416020
0.400390
0.394530
0.390620
0.375000
0.355470
0.335940
0.335940
0.330080
0.335940
0.335940
0.335940
0.339840
0.359380
0.400390
0.435550
0.544920
0.685550
0.699220
0.449220
0.339840
0.335940
0.324220
0.324220
0.320310
0.314450
0.310550
0.314450
0.320310
0.320310
0.320310
0.330080
0.335940
0.349610
0.371090
0.380860
0.390620
0.400390
0.416020
0.425780
0.435550
0.435550
0.449220
0.455080
0.455080
0.449220
0.445310
0.435550
0.419920
0.410160
0.394530
0.390620
0.380860
0.375000
0.380860
0.384770
0.390620
0.390620
0.394530
0.394530
0.390620
0.390620
0.400390
0.416020
0.419920
0.435550
0.460940
0.449220
0.435550
0.416020
0.410160
0.400390
0.390620
0.371090
0.355470
0.339840
0.339840
0.339840
0.339840
0.339840
0.339840
0.355470
0.394530
0.429690
0.500000
0.654300
0.695310
0.500000
0.345700
0.349610
0.345700
0.339840
0.339840
0.339840
0.335940
0.339840
0.335940
0.339840
0.339840
0.339840
0.339840
0.355470
0.365230
0.375000
0.390620
0.400390
0.416020
0.425780
0.435550
0.445310
0.455080
0.460940
0.460940
0.460940
0.460940
0.449220
0.439450
0.419920
0.410160
0.400390
0.390620
0.390620
0.384770
0.390620
0.390620
0.390620
0.390620
0.390620
0.390620
0.390620
0.384770
0.400390
0.416020
0.429690
0.445310
0.439450
0.425780
0.416020
0.410160
0.404300
0.384770
0.365230
0.345700
0.335940
0.335940
0.335940
0.335940
0.335940
0.335940
0.349610
0.390620
0.429690
0.464840
0.628910
0.685550
0.554690
0.355470
0.339840
0.339840
0.339840
0.335940
0.324220
0.330080
0.330080
0.330080
0.335940
0.339840
0.339840
0.345700
0.345700
0.365230
0.375000
0.390620
0.394530
0.404300
0.416020
0.429690
0.439450
0.449220
0.455080
0.455080
0.449220
0.445310
0.439450
0.429690
0.416020
0.394530
0.390620
0.384770
0.380860
0.380860
0.384770
0.380860
0.384770
0.380860
0.384770
0.384770
0.384770
0.384770
0.394530
0.410160
0.416020
0.439450
0.435550
0.419920
0.410160
0.390620
0.390620
0.380860
0.365230
0.335940
0.330080
0.324220
0.324220
0.335940
0.324220
0.320310
0.335940
0.384770
0.419920
0.449220
0.615230
0.695310
0.605470
0.380860
0.345700
0.339840
0.335940
0.339840
0.335940
0.330080
0.330080
0.330080
0.330080
0.324220
0.330080
0.339840
0.349610
0.365230
0.371090
0.380860
0.394530
0.404300
0.416020
0.425780
0.435550
0.449220
0.455080
0.460940
0.460940
0.460940
0.460940
0.449220
0.435550
0.419920
0.410160
0.400390
0.394530
0.390620
0.390620
0.394530
0.400390
0.400390
0.400390
0.410160
0.404300
0.404300
0.416020
0.425780
0.435550
0.455080
0.474610
0.460940
0.439450
0.419920
0.419920
0.410160
0.400390
0.380860
0.359380
0.355470
0.349610
0.349610
0.345700
0.345700
0.355470
0.394530
0.429690
0.464840
0.595700
0.724610
0.740230
0.455080
0.365230
0.345700
0.339840
0.345700
0.339840
0.324220
0.324220
0.324220
0.330080
0.330080
0.335940
0.335940
0.339840
0.345700
0.355470
0.365230
0.375000
0.390620
0.394530
0.410160
0.419920
0.429690
0.435550
0.429690
0.435550
0.429690
0.429690
0.425780
0.416020
0.404300
0.390620
0.390620
0.390620
0.380860
0.380860
0.375000
0.375000
0.375000
0.380860
0.375000
0.375000
0.375000
0.380860
0.394530
0.416020
0.429690
0.449220
0.439450
0.425780
0.410160
0.400390
0.390620
0.380860
0.355470
0.335940
0.330080
0.324220
0.320310
0.320310
0.320310
0.320310
0.345700
0.394530
0.439450
0.519530
0.689450
0.724610
0.494140
0.339840
0.330080
0.314450
0.310550
0.304690
0.294920
0.294920
0.304690
0.304690
0.300780
0.304690
0.310550
0.310550
0.320310
0.330080
0.339840
0.339840
0.355470
0.365230
0.375000
0.390620
0.404300
0.416020
0.416020
0.416020
0.416020
0.416020
0.404300
0.394530
0.390620
0.375000
0.371090
0.365230
0.359380
0.355470
0.349610
0.349610
0.349610
0.365230
0.365230
0.365230
0.365230
0.365230
0.380860
0.400390
0.416020
0.435550
0.439450
0.416020
0.394530
0.384770
0.380860
0.365230
0.355470
0.335940
0.320310
0.320310
0.320310
0.320310
0.314450
0.320310
0.335940
0.380860
0.425780
0.470700
0.650390
0.689450
0.529300
0.349610
0.339840
0.335940
0.330080
0.324220
0.324220
0.320310
0.320310
0.320310
0.324220
0.324220
0.330080
0.335940
0.339840
0.345700
0.355470
0.371090
0.384770
0.390620
0.404300
0.416020
0.419920
0.429690
0.429690
0.435550
0.435550
0.435550
0.425780
0.416020
0.400390
0.390620
0.380860
0.380860
0.375000
0.375000
0.371090
0.365230
0.371090
0.375000
0.380860
0.380860
0.375000
0.380860
0.390620
0.410160
0.416020
0.439450
0.435550
0.425780
0.416020
0.404300
0.400390
0.384770
0.359380
0.339840
0.320310
0.320310
0.314450
0.314450
0.320310
0.320310
0.330080
0.371090
0.410160
0.445310
0.609380
0.675780
0.554690
0.355470
0.324220
0.330080
0.324220
0.324220
0.320310
0.314450
0.320310
0.320310
0.320310
0.324220
0.324220
0.335940
0.339840
0.349610
0.359380
0.375000
0.384770
0.394530
0.410160
0.416020
0.425780
0.435550
0.439450
0.439450
0.445310
0.439450
0.435550
0.419920
0.410160
0.394530
0.384770
0.375000
0.371090
0.371090
0.375000
0.380860
0.380860
0.380860
0.384770
0.380860
0.380860
0.380860
0.384770
0.394530
0.410160
0.435550
0.429690
0.419920
0.410160
0.394530
0.394530
0.380860
0.359380
0.339840
0.324220
0.320310
0.324220
0.330080
0.330080
0.335940
0.339840
0.375000
0.419920
0.445310
0.605470
0.679690
0.583980
0.371090
0.330080
0.335940
0.339840
0.335940
0.335940
0.335940
0.324220
0.330080
0.335940
0.335940
0.335940
0.339840
0.345700
0.359380
0.365230
0.371090
0.384770
0.394530
0.404300
0.416020
0.435550
0.439450
0.439450
0.455080
0.455080
0.455080
0.445310
0.435550
0.425780
0.416020
0.400390
0.390620
0.384770
0.380860
0.380860
0.384770
0.384770
0.384770
0.384770
0.384770
0.384770
0.380860
0.390620
0.404300
0.416020
0.435550
0.445310
0.425780
0.416020
0.400390
0.404300
0.390620
0.380860
0.355470
0.345700
0.339840
0.330080
0.335940
0.339840
0.339840
0.339840
0.375000
0.416020
0.445310
0.583980
0.685550
0.628910
0.410160
0.349610
0.345700
0.339840
0.345700
0.339840
0.335940
0.335940
0.335940
0.339840
0.339840
0.339840
0.339840
0.349610
0.359380
0.365230
0.380860
0.390620
0.400390
0.416020
0.425780
0.435550
0.445310
0.449220
0.455080
0.455080
0.449220
0.445310
0.435550
0.419920
0.410160
0.400390
0.400390
0.390620
0.384770
0.390620
0.390620
0.394530
0.394530
0.400390
0.394530
0.400390
0.394530
0.400390
0.416020
0.429690
0.445310
0.464840
0.455080
0.435550
0.425780
0.419920
0.416020
0.390620
0.375000
0.355470
0.339840
0.339840
0.339840
0.339840
0.339840
0.339840
0.371090
0.416020
0.455080
0.539060
0.699220
0.730470
0.505860
0.365230
0.345700
0.339840
0.339840
0.330080
0.330080
0.324220
0.335940
0.335940
0.335940
0.335940
0.339840
0.345700
0.349610
0.355470
0.365230
0.375000
0.384770
0.394530
0.410160
0.419920
0.429690
0.435550
0.439450
0.445310
0.435550
0.435550
0.435550
0.425780
0.416020
0.404300
0.390620
0.390620
0.384770
0.380860
0.390620
0.384770
0.384770
0.384770
0.384770
0.384770
0.384770
0.390620
0.404300
0.416020
0.435550
0.460940
0.445310
0.435550
0.416020
0.400390
0.394530
0.384770
0.365230
0.339840
0.330080
0.324220
0.330080
0.330080
0.330080
0.324220
0.339840
0.394530
0.435550
0.490230
0.679690
0.744140
0.589840
0.371090
0.339840
0.324220
0.320310
0.320310
0.320310
0.314450
0.320310
0.314450
0.314450
0.320310
0.320310
0.324220
0.335940
0.339840
0.349610
0.365230
0.371090
0.384770
0.390620
0.410160
0.416020
0.419920
0.429690
0.425780
0.429690
0.435550
0.435550
0.425780
0.416020
0.400390
0.390620
0.390620
0.384770
0.380860
0.380860
0.380860
0.384770
0.390620
0.384770
0.390620
0.380860
0.390620
0.400390
0.419920
0.435550
0.460940
0.455080
0.439450
0.419920
0.410160
0.410160
0.390620
0.380860
0.349610
0.335940
0.324220
0.324220
0.324220
0.320310
0.324220
0.330080
0.371090
0.419920
0.455080
0.615230
0.695310
0.619140
0.390620
0.339840
0.324220
0.324220
0.324220
0.330080
0.320310
0.330080
0.335940
0.339840
0.339840
0.345700
0.355470
0.355470
0.365230
0.375000
0.390620
0.400390
0.416020
0.425780
0.435550
0.439450
0.449220
0.455080
0.455080
0.455080
0.455080
0.449220
0.439450
0.435550
0.419920
0.416020
0.404300
0.394530
0.390620
0.390620
0.390620
0.394530
0.400390
0.400390
0.400390
0.400390
0.400390
0.410160
0.425780
0.435550
0.455080
0.460940
0.449220
0.435550
0.419920
0.419920
0.404300
0.390620
0.365230
0.355470
0.349610
0.345700
0.345700
0.349610
0.355470
0.359380
0.384770
0.429690
0.460940
0.583980
0.705080
0.708980
0.445310
0.359380
0.365230
0.359380
0.355470
0.345700
0.349610
0.349610
0.345700
0.345700
0.355470
0.359380
0.359380
0.359380
0.365230
0.375000
0.390620
0.400390
0.410160
0.416020
0.435550
0.445310
0.449220
0.455080
0.460940
0.464840
0.460940
0.449220
0.449220
0.435550
0.416020
0.400390
0.390620
0.390620
0.384770
0.384770
0.384770
0.380860
0.375000
0.380860
0.380860
0.384770
0.380860
0.390620
0.404300
0.416020
0.425780
0.435550
0.429690
0.416020
0.400390
0.390620
0.400390
0.375000
0.359380
0.339840
0.330080
0.324220
0.324220
0.324220
0.324220
0.324220
0.349610
0.390620
0.425780
0.494140
0.654300
0.675780
0.484380
0.330080
0.335940
0.339840
0.330080
0.320310
0.320310
0.320310
0.320310
0.324220
0.324220
0.324220
0.330080
0.339840
0.345700
0.339840
0.359380
0.384770
0.390620
0.400390
0.416020
0.419920
0.435550
0.439450
0.455080
0.449220
0.439450
0.439450
0.435550
0.425780
0.416020
0.404300
0.390620
0.375000
0.371090
0.384770
0.380860
0.380860
0.380860
0.380860
0.384770
0.380860
0.380860
0.380860
0.390620
0.410160
0.429690
0.449220
0.439450
0.425780
0.416020
0.400390
0.410160
0.390620
0.380860
0.355470
0.339840
0.339840
0.339840
0.339840
0.335940
0.345700
0.349610
0.390620
0.425780
0.455080
0.625000
0.679690
0.554690
0.355470
0.339840
0.335940
0.335940
0.335940
0.335940
0.330080
0.330080
0.339840
0.339840
0.339840
0.339840
0.345700
0.355470
0.365230
0.371090
0.390620
0.400390
0.416020
0.419920
0.429690
0.439450
0.445310
0.455080
0.449220
0.460940
0.455080
0.445310
0.449220
0.435550
0.416020
0.410160
0.410160
0.400390
0.394530
0.390620
0.384770
0.390620
0.390620
0.400390
0.400390
0.400390
0.400390
0.410160
0.419920
0.435550
0.455080
0.470700
0.460940
0.445310
0.435550
0.429690
0.419920
0.404300
0.380860
0.365230
0.359380
0.349610
0.355470
0.359380
0.345700
0.355470
0.384770
0.425780
0.464840
0.580080
0.708980
0.734380
0.474610
0.365230
0.359380
0.345700
0.335940
0.339840
0.330080
0.335940
0.330080
0.335940
0.335940
0.339840
0.339840
0.339840
0.345700
0.355470
0.359380
0.371090
0.380860
0.390620
0.404300
0.416020
0.425780
0.429690
0.435550
0.435550
0.435550
0.435550
0.429690
0.416020
0.416020
0.394530
0.390620
0.375000
0.375000
0.371090
0.365230
0.365230
0.371090
0.365230
0.371090
0.365230
0.371090
0.365230
0.375000
0.390620
0.410160
0.435550
0.435550
0.419920
0.404300
0.384770
0.384770
0.375000
0.359380
0.330080
0.310550
0.310550
0.304690
0.304690
0.300780
0.304690
0.324220
0.375000
0.425780
0.470700
0.654300
0.720700
0.564450
0.355470
0.324220
0.320310
0.304690
0.304690
0.300780
0.294920
0.294920
0.300780
0.304690
0.304690
0.304690
0.314450
0.320310
0.324220
0.339840
0.349610
0.359380
0.371090
0.384770
0.394530
0.410160
0.416020
0.419920
0.419920
0.425780
0.419920
0.416020
0.410160
0.394530
0.384770
0.375000
0.365230
0.365230
0.365230
0.359380
0.365230
0.365230
0.365230
0.365230
0.371090
0.365230
0.375000
0.384770
0.394530
0.410160
0.435550
0.439450
0.416020
0.410160
0.390620
0.390620
0.390620
0.371090
0.345700
0.335940
0.324220
0.324220
0.324220
0.330080
0.324220
0.339840
0.375000
0.416020
0.449220
0.605470
0.705080
0.640620
0.394530
0.355470
0.345700
0.330080
0.324220
0.324220
0.320310
0.324220
0.324220
0.324220
0.330080
0.324220
0.330080
0.339840
0.349610
0.359380
0.365230
0.375000
0.390620
0.400390
0.416020
0.425780
0.429690
0.435550
0.435550
0.429690
0.429690
0.429690
0.425780
0.416020
0.400390
0.390620
0.371090
0.365230
0.365230
0.365230
0.365230
0.371090
0.380860
0.380860
0.384770
0.375000
0.375000
0.380860
0.394530
0.410160
0.429690
0.435550
0.425780
0.416020
0.400390
0.394530
0.384770
0.365230
0.345700
0.324220
0.320310
0.320310
0.320310
0.320310
0.324220
0.330080
0.349610
0.400390
0.429690
0.539060
0.660160
0.679690
0.439450
0.345700
0.339840
0.339840
0.339840
0.335940
0.324220
0.324220
0.324220
0.324220
0.335940
0.330080
0.335940
0.345700
0.359380
0.365230
0.375000
0.384770
0.404300
0.416020
0.425780
0.435550
0.439450
0.455080
0.449220
0.449220
0.449220
0.449220
0.445310
0.429690
0.416020
0.404300
0.390620
0.380860
0.375000
0.380860
0.380860
0.380860
0.384770
0.390620
0.390620
0.390620
0.380860
0.390620
0.400390
0.416020
0.435550
0.445310
0.435550
0.416020
0.410160
0.400390
0.390620
0.375000
0.359380
0.339840
0.330080
0.324220
0.324220
0.324220
0.324220
0.324220
0.355470
0.390620
0.425780
0.505860
0.654300
0.689450
0.490230
0.349610
0.345700
0.339840
0.339840
0.339840
0.335940
0.339840
0.339840
0.339840
0.339840
0.339840
0.339840
0.349610
0.365230
0.371090
0.371090
0.384770
0.400390
0.419920
0.435550
0.439450
0.455080
0.449220
0.460940
0.460940
0.460940
0.460940
0.449220
0.435550
0.416020
0.404300
0.394530
0.390620
0.380860
0.375000
0.380860
0.375000
0.390620
0.394530
0.394530
0.390620
0.390620
0.400390
0.410160
0.425780
0.429690
0.460940
0.449220
0.429690
0.410160
0.404300
0.410160
0.384770
0.365230
0.349610
0.345700
0.339840
0.335940
0.335940
0.330080
0.339840
0.359380
0.400390
0.445310
0.484380
0.654300
0.689450
0.529300
0.359380
0.349610
0.359380
0.349610
0.349610
0.339840
0.339840
0.335940
0.339840
0.345700
0.345700
0.349610
0.355470
0.359380
0.365230
0.375000
0.390620
0.400390
0.410160
0.419920
0.435550
0.455080
0.460940
0.460940
0.460940
0.455080
0.455080
0.445310
0.439450
0.425780
0.410160
0.394530
0.390620
0.384770
0.380860
0.384770
0.384770
0.384770
0.384770
0.380860
0.380860
0.375000
0.384770
0.390620
0.400390
0.410160
0.445310
0.449220
0.435550
0.416020
0.410160
0.410160
0.394530
0.384770
0.365230
0.355470
0.339840
0.339840
0.339840
0.339840
0.339840
0.349610
0.394530
0.435550
0.470700
0.640620
0.708980
0.599610
0.375000
0.349610
0.339840
0.339840
0.335940
0.330080
0.324220
0.330080
0.330080
0.324220
0.330080
0.335940
0.339840
0.345700
0.355470
0.365230
0.371090
0.384770
0.400390
0.410160
0.425780
0.435550
0.435550
0.439450
0.449220
0.439450
0.439450
0.435550
0.425780
0.410160
0.394530
0.384770
0.375000
0.375000
0.371090
0.371090
0.365230
0.375000
0.380860
0.375000
0.371090
0.380860
0.380860
0.384770
0.400390
0.416020
0.445310
0.449220
0.429690
0.416020
0.400390
0.400390
0.390620
0.371090
0.349610
0.339840
0.324220
0.320310
0.324220
0.330080
0.324220
0.330080
0.371090
0.410160
0.455080
0.615230
0.730470
0.740230
0.416020
0.349610
0.330080
0.320310
0.320310
0.320310
0.320310
0.320310
0.320310
0.320310
0.324220
0.330080
0.330080
0.335940
0.339840
0.345700
0.355470
0.365230
0.375000
0.390620
0.394530
0.410160
0.416020
0.429690
0.429690
0.429690
0.435550
0.429690
0.419920
0.410160
0.400390
0.390620
0.380860
0.375000
0.375000
0.375000
0.365230
0.365230
0.371090
0.371090
0.375000
0.365230
0.371090
0.380860
0.400390
0.416020
0.435550
0.445310
0.429690
0.416020
0.400390
0.390620
0.384770
0.375000
0.349610
0.330080
0.324220
0.320310
0.324220
0.330080
0.324220
0.324220
0.359380
0.400390
0.439450
0.574220
0.689450
0.699220
0.425780
0.339840
0.330080
0.320310
0.320310
0.310550
0.304690
0.314450
0.314450
0.320310
0.314450
0.320310
0.320310
0.324220
0.330080
0.339840
0.355470
0.365230
0.365230
0.384770
0.394530
0.410160
0.416020
0.425780
0.429690
0.429690
0.425780
0.419920
0.416020
0.400390
0.390620
0.380860
0.371090
0.371090
0.365230
0.359380
0.365230
0.365230
0.371090
0.365230
0.365230
0.365230
0.371090
0.380860
0.394530
0.416020
0.435550
0.439450
0.425780
0.416020
0.400390
0.400390
0.390620
0.375000
0.355470
0.335940
0.330080
0.335940
0.330080
0.324220
0.330080
0.339840
0.375000
0.416020
0.449220
0.589840
0.685550
0.695310
0.425780
0.349610
0.349610
0.345700
0.339840
0.335940
0.330080
0.330080
0.335940
0.339840
0.339840
0.339840
0.349610
0.355470
0.365230
0.371090
0.384770
0.394530
0.404300
0.416020
0.425780
0.435550
0.439450
0.449220
0.449220
0.449220
0.455080
0.449220
0.439450
0.429690
0.416020
0.400390
0.394530
0.384770
0.380860
0.380860
0.380860
0.375000
0.375000
0.380860
0.380860
0.384770
0.384770
0.390620
0.410160
0.419920
0.435550
0.435550
0.435550
0.419920
0.410160
0.404300
0.394530
0.380860
0.359380
0.339840
0.330080
0.324220
0.330080
0.335940
0.330080
0.339840
0.375000
0.410160
0.439450
0.595700
0.679690
0.619140
0.404300
0.339840
0.339840
0.339840
0.339840
0.335940
0.335940
0.335940
0.335940
0.339840
0.335940
0.345700
0.355470
0.355470
0.365230
0.375000
0.384770
0.390620
0.404300
0.419920
0.425780
0.435550
0.445310
0.449220
0.455080
0.460940
0.449220
0.439450
0.435550
0.419920
0.404300
0.400390
0.390620
0.384770
0.380860
0.384770
0.384770
0.380860
0.371090
0.371090
0.380860
0.384770
0.384770
0.390620
0.400390
0.416020
0.445310
0.455080
0.429690
0.416020
0.404300
0.410160
0.400390
0.380860
0.355470
0.339840
0.345700
0.345700
0.345700
0.339840
0.339840
0.355470
0.390620
0.425780
0.455080
0.609380
0.695310
0.619140
0.400390
0.355470
0.355470
0.355470
0.359380
0.349610
0.345700
0.345700
0.345700
0.349610
0.349610
0.355470
0.349610
0.365230
0.365230
0.380860
0.390620
0.404300
0.416020
0.429690
0.439450
0.455080
0.460940
0.460940
0.460940
0.460940
0.460940
0.455080
0.445310
0.429690
0.416020
0.404300
0.390620
0.384770
0.380860
0.375000
0.380860
0.380860
0.390620
0.390620
0.384770
0.390620
0.390620
0.394530
0.410160
0.425780
0.449220
0.455080
0.429690
0.416020
0.404300
0.410160
0.394530
0.384770
0.359380
0.339840
0.330080
0.330080
0.330080
0.324220
0.330080
0.339840
0.384770
0.425780
0.460940
0.619140
0.695310
0.605470
0.384770
0.345700
0.339840
0.335940
0.335940
0.330080
0.330080
0.330080
0.330080
0.330080
0.335940
0.339840
0.345700
0.345700
0.349610
0.365230
0.371090
0.384770
0.394530
0.404300
0.416020
0.425780
0.435550
0.435550
0.439450
0.439450
0.435550
0.435550
0.429690
0.416020
0.410160
0.394530
0.384770
0.384770
0.380860
0.380860
0.371090
0.371090
0.371090
0.375000
0.384770
0.384770
0.384770
0.390620
0.404300
0.425780
0.445310
0.455080
0.435550
0.419920
0.404300
0.404300
0.390620
0.375000
0.359380
0.339840
0.335940
0.330080
0.335940
0.330080
0.335940
0.339840
0.390620
0.429690
0.474610
0.644530
0.740230
0.640620
0.404300
0.365230
0.339840
0.330080
0.324220
0.320310
0.320310
0.314450
0.314450
0.320310
0.324220
0.330080
0.335940
0.339840
0.349610
0.359380
0.365230
0.375000
0.390620
0.400390
0.410160
0.419920
0.429690
0.435550
0.435550
0.435550
0.435550
0.425780
0.416020
0.410160
0.394530
0.384770
0.375000
0.371090
0.365230
0.365230
0.371090
0.371090
0.375000
0.384770
0.384770
0.375000
0.380860
0.390620
0.416020
0.429690
0.455080
0.445310
0.425780
0.404300
0.394530
0.394530
0.384770
0.365230
0.345700
0.330080
0.330080
0.320310
0.320310
0.320310
0.320310
0.335940
0.375000
0.419920
0.470700
0.634770
0.705080
0.570310
0.359380
0.339840
0.339840
0.324220
0.320310
0.304690
0.304690
0.304690
0.310550
0.310550
0.314450
0.320310
0.320310
0.324220
0.339840
0.339840
0.349610
0.365230
0.380860
0.390620
0.404300
0.410160
0.416020
0.416020
0.416020
0.416020
0.419920
0.404300
0.394530
0.390620
0.375000
0.365230
0.365230
0.349610
0.349610
0.349610
0.349610
0.355470
0.349610
0.355470
0.355470
0.359380
0.365230
0.375000
0.390620
0.410160
0.429690
0.425780
0.410160
0.390620
0.380860
0.365230
0.359380
0.345700
0.330080
0.330080
0.320310
0.320310
0.320310
0.320310
0.324220
0.349610
0.384770
0.429690
0.484380
0.644530
0.679690
0.494140
0.339840
0.339840
0.330080
0.330080
0.324220
0.320310
0.320310
0.320310
0.320310
0.320310
0.335940
0.339840
0.345700
0.355470
0.359380
0.359380
0.375000
0.390620
0.404300
0.410160
0.416020
0.425780
0.429690
0.435550
0.429690
0.435550
0.425780
0.419920
0.410160
0.400390
0.384770
0.365230
0.365230
0.365230
0.359380
0.359380
0.359380
0.359380
0.365230
0.359380
0.359380
0.365230
0.365230
0.375000
0.390620
0.419920
0.435550
0.416020
0.400390
0.390620
0.380860
0.375000
0.365230
0.345700
0.335940
0.320310
0.320310
0.320310
0.320310
0.324220
0.324220
0.359380
0.400390
0.425780
0.550780
0.664060
0.679690
0.435550
0.335940
0.339840
0.339840
0.335940
0.330080
0.320310
0.314450
0.320310
0.324220
0.335940
0.339840
0.339840
0.339840
0.345700
0.359380
0.371090
0.380860
0.390620
0.410160
0.416020
0.429690
0.435550
0.435550
0.435550
0.435550
0.435550
0.429690
0.419920
0.416020
0.394530
0.384770
0.380860
0.371090
0.371090
0.365230
0.365230
0.365230
0.365230
0.371090
0.375000
0.371090
0.375000
0.390620
0.404300
0.416020
0.429690
0.435550
0.425780
0.410160
0.394530
0.390620
0.390620
0.371090
0.345700
0.339840
0.335940
0.324220
0.320310
0.324220
0.335940
0.339840
0.380860
0.425780
0.460940
0.619140
0.685550
0.589840
0.375000
0.349610
0.349610
0.339840
0.339840
0.339840
0.339840
0.339840
0.339840
0.339840
0.339840
0.345700
0.345700
0.359380
0.365230
0.375000
0.390620
0.394530
0.404300
0.416020
0.429690
0.439450
0.445310
0.449220
0.449220
0.449220
0.445310
0.439450
0.435550
0.419920
0.404300
0.394530
0.384770
0.380860
0.371090
0.375000
0.380860
0.384770
0.380860
0.380860
0.375000
0.375000
0.384770
0.400390
0.416020
0.429690
0.449220
0.439450
0.425780
0.410160
0.404300
0.410160
0.384770
0.371090
0.345700
0.339840
0.339840
0.339840
0.339840
0.339840
0.339840
0.359380
0.410160
0.445310
0.505860
0.664060
0.705080
0.529300
0.375000
0.365230
0.359380
0.345700
0.339840
0.339840
0.330080
0.330080
0.324220
0.330080
0.339840
0.339840
0.345700
0.355470
0.359380
0.365230
0.375000
0.390620
0.400390
0.416020
0.425780
0.435550
0.439450
0.445310
0.449220
0.445310
0.449220
0.435550
0.429690
0.416020
0.404300
0.390620
0.384770
0.380860
0.375000
0.375000
0.384770
0.384770
0.390620
0.384770
0.384770
0.384770
0.390620
0.404300
0.416020
0.439450
0.455080
0.439450
0.429690
0.416020
0.410160
0.416020
0.390620
0.375000
0.349610
0.339840
0.339840
0.339840
0.339840
0.339840
0.345700
0.390620
0.435550
0.480470
0.595700
0.724610
0.740230
0.464840
0.365230
0.349610
0.339840
0.339840
0.335940
0.330080
0.330080
0.330080
0.339840
0.339840
0.339840
0.339840
0.349610
0.359380
0.365230
0.371090
0.375000
0.384770
0.394530
0.416020
0.419920
0.429690
0.439450
0.439450
0.439450
0.439450
0.435550
0.425780
0.410160
0.400390
0.390620
0.380860
0.380860
0.375000
0.371090
0.371090
0.371090
0.371090
0.371090
0.375000
0.375000
0.384770
0.390620
0.416020
0.416020
0.445310
0.439450
0.429690
0.416020
0.394530
0.394530
0.384770
0.365230
0.345700
0.335940
0.324220
0.324220
0.324220
0.330080
0.330080
0.335940
0.384770
0.425780
0.470700
0.650390
0.714840
0.589840
0.371090
0.345700
0.330080
0.330080
0.320310
0.320310
0.320310
0.320310
0.324220
0.330080
0.335940
0.339840
0.339840
0.349610
0.359380
0.365230
0.375000
0.384770
0.394530
0.410160
0.419920
0.429690
0.435550
0.435550
0.435550
0.435550
0.439450
0.435550
0.429690
0.416020
0.400390
0.390620
0.380860
0.380860
0.380860
0.375000
0.380860
0.380860
0.380860
0.380860
0.380860
0.384770
0.390620
0.410160
0.419920
0.445310
0.460940
0.449220
0.435550
0.416020
0.410160
0.416020
0.394530
0.375000
0.339840
0.339840
0.339840
0.339840
0.330080
0.335940
0.339840
0.371090
0.410160
0.439450
0.535160
0.664060
0.685550
0.455080
0.339840
0.345700
0.339840
0.335940
0.330080
0.324220
0.330080
0.330080
0.330080
0.335940
0.335940
0.339840
0.339840
0.349610
0.365230
0.371090
0.384770
0.390620
0.404300
0.416020
0.429690
0.435550
0.445310
0.445310
0.439450
0.435550
0.435550
0.425780
0.416020
0.410160
0.390620
0.384770
0.365230
0.365230
0.365230
0.365230
0.371090
0.375000
0.375000
0.371090
0.375000
0.380860
0.390620
0.416020
0.425780
0.435550
0.435550
0.425780
0.416020
0.404300
0.404300
0.390620
0.375000
0.345700
0.339840
0.330080
0.330080
0.330080
0.330080
0.330080
0.345700
0.390620
0.435550
0.474610
0.644530
0.689450
0.554690
0.365230
0.349610
0.355470
0.355470
0.349610
0.339840
0.345700
0.339840
0.339840
0.335940
0.339840
0.339840
0.339840
0.345700
0.359380
0.371090
0.375000
0.390620
0.394530
0.404300
0.416020
0.425780
0.435550
0.435550
0.439450
0.439450
0.435550
0.429690
0.425780
0.416020
0.410160
0.404300
0.400390
0.400390
0.390620
0.384770
0.384770
0.390620
0.394530
0.390620
0.390620
0.390620
0.400390
0.404300
0.416020
0.439450
0.449220
0.435550
0.425780
0.416020
0.416020
0.404300
0.390620
0.371090
0.359380
0.345700
0.345700
0.345700
0.349610
0.349610
0.349610
0.384770
0.425780
0.460940
0.583980
0.695310
0.708980
0.445310
0.359380
0.359380
0.355470
0.349610
0.349610
0.345700
0.345700
0.345700
0.349610
0.349610
0.355470
0.359380
0.365230
0.380860
0.390620
0.390620
0.400390
0.410160
0.416020
0.425780
0.439450
0.455080
0.460940
0.464840
0.460940
0.460940
0.464840
0.460940
0.435550
0.419920
0.404300
0.400390
0.394530
0.390620
0.384770
0.384770
0.390620
0.390620
0.390620
0.390620
0.390620
0.390620
0.400390
0.410160
0.425780
0.455080
0.460940
0.435550
0.419920
0.404300
0.400390
0.390620
0.380860
0.349610
0.339840
0.335940
0.335940
0.330080
0.330080
0.335940
0.345700
0.390620
0.425780
0.474610
0.654300
0.730470
0.599610
0.375000
0.349610
0.330080
0.324220
0.330080
0.320310
0.320310
0.320310
0.320310
0.330080
0.324220
0.330080
0.330080
0.339840
0.349610
0.359380
0.365230
0.371090
0.384770
0.394530
0.410160
0.419920
0.435550
0.435550
0.435550
0.435550
0.435550
0.429690
0.419920
0.416020
0.400390
0.390620
0.375000
0.375000
0.371090
0.365230
0.365230
0.371090
0.371090
0.371090
0.371090
0.371090
0.375000
0.394530
0.416020
0.439450
0.455080
0.435550
0.419920
0.400390
0.394530
0.400390
0.380860
0.359380
0.339840
0.330080
0.320310
0.320310
0.324220
0.320310
0.324220
0.359380
0.410160
0.449220
0.564450
0.699220
0.714840
0.445310
0.345700
0.339840
0.324220
0.320310
0.320310
0.320310
0.320310
0.320310
0.314450
0.314450
0.324220
0.335940
0.335940
0.339840
0.355470
0.365230
0.371090
0.380860
0.390620
0.400390
0.416020
0.419920
0.435550
0.435550
0.435550
0.429690
0.419920
0.419920
0.410160
0.400390
0.390620
0.390620
0.384770
0.380860
0.380860
0.375000
0.371090
0.365230
0.375000
0.375000
0.375000
0.371090
0.390620
0.400390
0.419920
0.445310
0.435550
0.419920
0.416020
0.400390
0.394530
0.384770
0.371090
0.339840
0.339840
0.335940
0.335940
0.330080
0.324220
0.330080
0.345700
0.394530
0.439450
0.474610
0.650390
0.708980
0.583980
0.375000
0.359380
0.345700
0.339840
0.339840
0.330080
0.324220
0.335940
0.339840
0.339840
0.345700
0.349610
0.345700
0.359380
0.365230
0.380860
0.384770
0.394530
0.410160
0.416020
0.425780
0.439450
0.455080
0.460940
0.460940
0.455080
0.445310
0.435550
0.425780
0.425780
0.416020
0.400390
0.394530
0.390620
0.375000
0.371090
0.380860
0.380860
0.380860
0.380860
0.384770
0.384770
0.380860
0.394530
0.410160
0.429690
0.445310
0.429690
0.416020
0.404300
0.400390
0.390620
0.375000
0.359380
0.345700
0.335940
0.324220
0.330080
0.330080
0.330080
0.330080
0.365230
0.416020
0.439450
0.574220
0.679690
0.685550
0.416020
0.339840
0.345700
0.339840
0.339840
0.330080
0.330080
0.324220
0.335940
0.339840
0.335940
0.330080
0.335940
0.349610
0.365230
0.365230
0.371090
0.384770
0.394530
0.419920
0.425780
0.416020
0.435550
0.449220
0.455080
0.449220
0.449220
0.445310
0.435550
0.425780
0.410160
0.394530
0.390620
0.380860
0.371090
0.375000
0.380860
0.380860
0.380860
0.371090
0.371090
0.375000
0.380860
0.390620
0.400390
0.425780
0.445310
0.435550
0.425780
0.410160
0.394530
0.394530
0.380860
0.365230
0.345700
0.339840
0.330080
0.330080
0.330080
0.335940
0.330080
0.349610
0.394530
0.429690
0.500000
0.644530
0.675780
0.494140
0.335940
0.339840
0.335940
0.339840
0.330080
0.324220
0.330080
0.330080
0.330080
0.335940
0.339840
0.339840
0.345700
0.349610
0.359380
0.380860
0.390620
0.404300
0.404300
0.416020
0.429690
0.439450
0.445310
0.455080
0.449220
0.449220
0.439450
0.429690
0.425780
0.416020
0.400390
0.384770
0.375000
0.371090
0.375000
0.375000
0.371090
0.375000
0.384770
0.380860
0.384770
0.384770
0.390620
0.410160
0.425780
0.449220
0.455080
0.435550
0.419920
0.410160
0.410160
0.394530
0.384770
0.365230
0.355470
0.339840
0.339840
0.339840
0.335940
0.330080
0.345700
0.384770
0.429690
0.455080
0.615230
0.689450
0.605470
0.380860
0.345700
0.339840
0.339840
0.339840
0.330080
0.330080
0.339840
0.339840
0.339840
0.339840
0.345700
0.349610
0.355470
0.359380
0.365230
0.380860
0.390620
0.400390
0.416020
0.425780
0.435550
0.445310
0.445310
0.449220
0.455080
0.445310
0.439450
0.425780
0.416020
0.404300
0.390620
0.390620
0.380860
0.375000
0.375000
0.384770
0.380860
0.384770
0.384770
0.390620
0.384770
0.390620
0.400390
0.416020
0.435550
0.460940
0.445310
0.435550
0.416020
0.416020
0.404300
0.390620
0.375000
0.355470
0.339840
0.339840
0.339840
0.339840
0.339840
0.339840
0.371090
0.419920
0.460940
0.544920
0.699220
0.730470
0.500000
0.359380
0.345700
0.339840
0.335940
0.330080
0.330080
0.335940
0.335940
0.335940
0.335940
0.339840
0.349610
0.365230
0.365230
0.365230
0.375000
0.390620
0.390620
0.410160
0.419920
0.429690
0.439450
0.445310
0.445310
0.445310
0.435550
0.435550
0.419920
0.410160
0.394530
0.390620
0.375000
0.380860
0.375000
0.371090
0.365230
0.371090
0.375000
0.371090
0.375000
0.375000
0.384770
0.390620
0.410160
0.419920
0.449220
0.455080
0.429690
0.416020
0.400390
0.404300
0.390620
0.384770
0.359380
0.330080
0.324220
0.324220
0.330080
0.324220
0.330080
0.339840
0.384770
0.439450
0.480470
0.654300
0.724610
0.605470
0.375000
0.345700
0.339840
0.324220
0.320310
0.320310
0.320310
0.314450
0.320310
0.310550
0.320310
0.320310
0.320310
0.324220
0.339840
0.349610
0.359380
0.365230
0.375000
0.390620
0.400390
0.416020
0.419920
0.419920
0.425780
0.419920
0.416020
0.416020
0.404300
0.390620
0.384770
0.371090
0.371090
0.365230
0.365230
0.365230
0.359380
0.359380
0.355470
0.355470
0.359380
0.359380
0.371090
0.390620
0.410160
0.425780
0.429690
0.416020
0.404300
0.384770
0.380860
0.384770
0.359380
0.345700
0.335940
0.320310
0.320310
0.320310
0.314450
0.320310
0.324220
0.359380
0.404300
0.435550
0.554690
0.669920
0.685550
0.425780
0.345700
0.339840
0.335940
0.324220
0.320310
0.320310
0.320310
0.320310
0.324220
0.330080
0.335940
0.339840
0.339840
0.349610
0.359380
0.365230
0.384770
0.390620
0.404300
0.416020
0.425780
0.429690
0.435550
0.435550
0.435550
0.435550
0.435550
0.425780
0.416020
0.404300
0.390620
0.380860
0.371090
0.365230
0.365230
0.365230
0.371090
0.375000
0.375000
0.380860
0.380860
0.384770
0.394530
0.416020
0.435550
0.455080
0.460940
0.435550
0.416020
0.404300
0.400390
0.380860
0.359380
0.339840
0.330080
0.320310
0.320310
0.320310
0.320310
0.314450
0.345700
0.384770
0.429690
0.484380
0.634770
0.660160
0.494140
0.335940
0.339840
0.330080
0.324220
0.335940
0.339840
0.339840
0.345700
0.349610
0.355470
0.355470
0.359380
0.359380
0.365230
0.375000
0.380860
0.394530
0.410160
0.419920
0.429690
0.439450
0.449220
0.460940
0.460940
0.464840
0.460940
0.455080
0.445310
0.435550
0.425780
0.416020
0.400390
0.394530
0.390620
0.390620
0.390620
0.390620
0.390620
0.390620
0.390620
0.390620
0.390620
0.394530
0.416020
0.419920
0.445310
0.460940
0.455080
0.435550
0.416020
0.416020
0.404300
0.390620
0.375000
0.355470
0.349610
0.349610
0.349610
0.345700
0.349610
0.365230
0.410160
0.439450
0.464840
0.619140
0.708980
0.644530
0.416020
0.365230
0.359380
0.355470
0.359380
0.345700
0.345700
0.345700
0.345700
0.349610
0.349610
0.355470
0.355470
0.365230
0.371090
0.375000
0.384770
0.390620
0.400390
0.404300
0.416020
0.435550
0.439450
0.445310
0.455080
0.455080
0.449220
0.435550
0.435550
0.416020
0.410160
0.390620
0.390620
0.384770
0.380860
0.375000
0.380860
0.380860
0.380860
0.380860
0.380860
0.375000
0.380860
0.390620
0.416020
0.429690
0.460940
0.439450
0.429690
0.416020
0.404300
0.394530
0.384770
0.365230
0.345700
0.339840
0.330080
0.335940
0.324220
0.330080
0.330080
0.359380
0.404300
0.445310
0.525390
0.689450
0.724610
0.515620
0.359380
0.335940
0.324220
0.324220
0.320310
0.320310
0.320310
0.320310
0.324220
0.330080
0.330080
0.330080
0.339840
0.345700
0.359380
0.365230
0.371090
0.384770
0.390620
0.404300
0.416020
0.429690
0.435550
0.435550
0.435550
0.435550
0.429690
0.425780
0.416020
0.404300
0.390620
0.380860
0.375000
0.375000
0.365230
0.365230
0.365230
0.365230
0.371090
0.371090
0.371090
0.375000
0.380860
0.394530
0.416020
0.435550
0.445310
0.425780
0.416020
0.394530
0.390620
0.384770
0.371090
0.345700
0.330080
0.324220
0.330080
0.320310
0.320310
0.320310
0.335940
0.375000
0.416020
0.449220
0.634770
0.699220
0.605470
0.380860
0.339840
0.324220
0.314450
0.320310
0.324220
0.320310
0.314450
0.320310
0.324220
0.324220
0.330080
0.330080
0.339840
0.349610
0.355470
0.365230
0.380860
0.375000
0.404300
0.416020
0.416020
0.435550
0.439450
0.439450
0.435550
0.435550
0.439450
0.435550
0.419920
0.419920
0.394530
0.390620
0.390620
0.390620
0.390620
0.400390
0.394530
0.390620
0.394530
0.400390
0.404300
0.410160
0.419920
0.435550
0.455080
0.474610
0.460940
0.445310
0.435550
0.425780
0.429690
0.404300
0.384770
0.365230
0.355470
0.355470
0.345700
0.345700
0.355470
0.359380
0.384770
0.419920
0.455080
0.529300
0.679690
0.699220
0.484380
0.365230
0.359380
0.359380
0.349610
0.345700
0.339840
0.339840
0.345700
0.345700
0.349610
0.349610
0.359380
0.365230
0.371090
0.375000
0.384770
0.400390
0.410160
0.416020
0.429690
0.439450
0.449220
0.455080
0.460940
0.455080
0.449220
0.445310
0.435550
0.419920
0.404300
0.390620
0.384770
0.375000
0.371090
0.365230
0.371090
0.375000
0.375000
0.375000
0.375000
0.375000
0.380860
0.390620
0.400390
0.416020
0.435550
0.439450
0.429690
0.410160
0.400390
0.394530
0.380860
0.365230
0.345700
0.335940
0.320310
0.335940
0.324220
0.324220
0.339840
0.355470
0.390620
0.425780
0.455080
0.625000
0.685550
0.564450
0.365230
0.345700
0.349610
0.339840
0.339840
0.335940
0.330080
0.324220
0.330080
0.335940
0.339840
0.339840
0.349610
0.355470
0.365230
0.375000
0.390620
0.404300
0.416020
0.435550
0.435550
0.449220
0.455080
0.449220
0.449220
0.449220
0.445310
0.435550
0.419920
0.404300
0.390620
0.375000
0.365230
0.365230
0.365230
0.365230
0.365230
0.365230
0.371090
0.371090
0.365230
0.371090
0.375000
0.394530
0.410160
0.429690
0.439450
0.435550
0.419920
0.416020
0.410160
0.416020
0.390620
0.365230
0.349610
0.339840
0.330080
0.335940
0.335940
0.335940
0.335940
0.371090
0.416020
0.439450
0.564450
0.664060
0.675780
0.429690
0.345700
0.349610
0.349610
0.349610
0.345700
0.345700
0.339840
0.349610
0.349610
0.355470
0.359380
0.359380
0.365230
0.380860
0.380860
0.390620
0.404300
0.416020
0.419920
0.435550
0.445310
0.455080
0.460940
0.464840
0.470700
0.464840
0.460940
0.449220
0.435550
0.416020
0.404300
0.390620
0.384770
0.384770
0.384770
0.380860
0.384770
0.384770
0.390620
0.390620
0.384770
0.384770
0.394530
0.416020
0.425780
0.449220
0.455080
0.435550
0.425780
0.416020
0.410160
0.390620
0.380860
0.355470
0.345700
0.339840
0.339840
0.339840
0.339840
0.345700
0.359380
0.410160
0.449220
0.490230
0.664060
0.734380
0.595700
0.375000
0.345700
0.339840
0.339840
0.339840
0.330080
0.330080
0.324220
0.324220
0.330080
0.324220
0.339840
0.335940
0.349610
0.359380
0.365230
0.380860
0.384770
0.390620
0.404300
0.416020
0.429690
0.439450
0.445310
0.445310
0.449220
0.435550
0.429690
0.416020
0.404300
0.384770
0.375000
0.365230
0.359380
0.365230
0.365230
0.359380
0.365230
0.359380
0.365230
0.365230
0.365230
0.371090
0.390620
0.400390
0.425780
0.435550
0.419920
0.410160
0.390620
0.384770
0.375000
0.365230
0.339840
0.330080
0.320310
0.320310
0.314450
0.320310
0.310550
0.320310
0.349610
0.394530
0.439450
0.560550
0.685550
0.708980
0.425780
0.335940
0.320310
0.310550
0.304690
0.300780
0.300780
0.300780
0.304690
0.310550
0.310550
0.310550
0.314450
0.320310
0.320310
0.339840
0.345700
0.355470
0.365230
0.375000
0.390620
0.410160
0.416020
0.416020
0.419920
0.429690
0.425780
0.429690
0.419920
0.410160
0.394530
0.384770
0.371090
0.365230
0.365230
0.365230
0.359380
0.365230
0.359380
0.365230
0.365230
0.365230
0.365230
0.380860
0.394530
0.416020
0.435550
0.439450
0.416020
0.390620
0.384770
0.380860
0.371090
0.359380
0.335940
0.320310
0.320310
0.320310
0.320310
0.320310
0.320310
0.339840
0.384770
0.429690
0.470700
0.640620
0.689450
0.560550
0.365230
0.355470
0.349610
0.339840
0.324220
0.320310
0.314450
0.320310
0.324220
0.330080
0.330080
0.335940
0.339840
0.345700
0.345700
0.355470
0.365230
0.380860
0.390620
0.400390
0.410160
0.419920
0.429690
0.435550
0.435550
0.435550
0.435550
0.429690
0.416020
0.410160
0.394530
0.390620
0.375000
0.371090
0.371090
0.371090
0.375000
0.375000
0.375000
0.380860
0.375000
0.380860
0.380860
0.394530
0.416020
0.429690
0.449220
0.435550
0.416020
0.400390
0.400390
0.390620
0.375000
0.355470
0.339840
0.335940
0.335940
0.330080
0.330080
0.339840
0.339840
0.375000
0.410160
0.439450
0.560550
0.675780
0.679690
0.429690
0.339840
0.345700
0.339840
0.339840
0.339840
0.339840
0.339840
0.339840
0.339840
0.345700
0.345700
0.355470
0.365230
0.375000
0.380860
0.390620
0.400390
0.410160
0.419920
0.435550
0.445310
0.449220
0.460940
0.460940
0.460940
0.460940
0.449220
0.435550
0.425780
0.416020
0.400390
0.390620
0.384770
0.371090
0.371090
0.375000
0.380860
0.375000
0.384770
0.390620
0.384770
0.390620
0.390620
0.410160
0.410160
0.435550
0.429690
0.416020
0.404300
0.394530
0.390620
0.380860
0.365230
0.339840
0.330080
0.330080
0.330080
0.335940
0.330080
0.335940
0.349610
0.384770
0.425780
0.470700
0.628910
0.669920
0.519530
0.345700
0.335940
0.339840
0.335940
0.330080
0.324220
0.324220
0.324220
0.330080
0.339840
0.335940
0.339840
0.339840
0.345700
0.355470
0.359380
0.375000
0.390620
0.400390
0.416020
0.425780
0.435550
0.445310
0.449220
0.445310
0.449220
0.445310
0.435550
0.419920
0.416020
0.394530
0.384770
0.380860
0.371090
0.371090
0.365230
0.375000
0.375000
0.375000
0.380860
0.375000
0.380860
0.390620
0.394530
0.404300
0.429690
0.439450
0.429690
0.416020
0.394530
0.390620
0.384770
0.375000
0.359380
0.339840
0.335940
0.339840
0.339840
0.339840
0.335940
0.339840
0.375000
0.416020
0.439450
0.570310
0.664060
0.669920
0.400390
0.320310
0.324220
0.324220
0.330080
0.324220
0.324220
0.324220
0.330080
0.335940
0.335940
0.339840
0.349610
0.365230
0.371090
0.380860
0.390620
0.404300
0.416020
0.429690
0.435550
0.449220
0.455080
0.460940
0.470700
0.470700
0.460940
0.455080
0.445310
0.435550
0.419920
0.410160
0.394530
0.390620
0.390620
0.390620
0.390620
0.390620
0.390620
0.390620
0.390620
0.390620
0.394530
0.404300
0.416020
0.429690
0.460940
0.464840
0.449220
0.429690
0.419920
0.416020
0.404300
0.390620
0.371090
0.355470
0.345700
0.345700
0.349610
0.349610
0.349610
0.359380
0.404300
0.439450
0.480470
0.654300
0.730470
0.615230
0.384770
0.359380
0.345700
0.339840
0.339840
0.339840
0.335940
0.335940
0.339840
0.339840
0.339840
0.345700
0.355470
0.359380
0.365230
0.371090
0.384770
0.384770
0.394530
0.400390
0.419920
0.435550
0.439450
0.445310
0.439450
0.435550
0.435550
0.435550
0.425780
0.416020
0.400390
0.390620
0.380860
0.371090
0.375000
0.371090
0.375000
0.380860
0.384770
0.380860
0.375000
0.375000
0.375000
0.390620
0.400390
0.419920
0.455080
0.435550
0.425780
0.404300
0.390620
0.394530
0.380860
0.365230
0.345700
0.335940
0.324220
0.330080
0.330080
0.324220
0.320310
0.345700
0.400390
0.439450
0.509770
0.679690
0.720700
0.509770
0.345700
0.335940
0.320310
0.320310
0.320310
0.310550
0.310550
0.304690
0.314450
0.314450
0.314450
0.320310
0.330080
0.324220
0.339840
0.355470
0.365230
0.365230
0.375000
0.390620
0.400390
0.410160
0.419920
0.429690
0.425780
0.425780
0.419920
0.416020
0.410160
0.394530
0.384770
0.371090
0.365230
0.365230
0.365230
0.365230
0.365230
0.359380
0.359380
0.365230
0.359380
0.365230
0.375000
0.394530
0.410160
0.429690
0.435550
0.419920
0.410160
0.394530
0.394530
0.384770
0.371090
0.349610
0.330080
0.320310
0.320310
0.320310
0.320310
0.320310
0.330080
0.365230
0.416020
0.455080
0.595700
0.685550
0.619140
0.390620
0.324220
0.320310
0.310550
0.310550
0.304690
0.294920
0.294920
0.304690
0.304690
0.314450
0.320310
0.330080
0.339840
0.345700
0.355470
0.365230
0.375000
0.390620
0.410160
0.419920
0.435550
0.439450
0.455080
0.455080
0.460940
0.455080
0.455080
0.439450
0.425780
0.416020
0.404300
0.390620
0.384770
0.380860
0.380860
0.380860
0.380860
0.380860
0.380860
0.380860
0.380860
0.384770
0.400390
0.416020
0.429690
0.455080
0.445310
0.425780
0.416020
0.404300
0.404300
0.390620
0.375000
0.359380
0.355470
0.355470
0.349610
0.349610
0.345700
0.355470
0.371090
0.410160
0.449220
0.494140
0.654300
0.685550
0.519530
0.355470
0.345700
0.349610
0.345700
0.339840
0.330080
0.330080
0.339840
0.339840
0.339840
0.339840
0.349610
0.359380
0.365230
0.365230
0.380860
0.390620
0.400390
0.410160
0.425780
0.435550
0.449220
0.449220
0.455080
0.455080
0.460940
0.449220
0.439450
0.435550
0.416020
0.404300
0.394530
0.390620
0.380860
0.375000
0.380860
0.380860
0.384770
0.384770
0.380860
0.375000
0.375000
0.390620
0.400390
0.419920
0.439450
0.449220
0.435550
0.416020
0.400390
0.404300
0.390620
0.380860
0.359380
0.349610
0.339840
0.339840
0.335940
0.335940
0.335940
0.339840
0.375000
0.416020
0.445310
0.580080
0.675780
0.628910
0.410160
0.349610
0.349610
0.339840
0.335940
0.335940
0.335940
0.330080
0.324220
0.330080
0.335940
0.339840
0.339840
0.355470
0.365230
0.371090
0.375000
0.390620
0.400390
0.416020
0.425780
0.435550
0.435550
0.445310
0.455080
0.449220
0.445310
0.439450
0.429690
0.416020
0.404300
0.410160
0.394530
0.394530
0.394530
0.410160
0.400390
0.400390
0.404300
0.410160
0.416020
0.400390
0.390620
0.365230
0.349610
0.349610
0.345700
0.339840
0.339840
0.339840
0.365230
0.410160
0.455080
0.570310
0.714840
0.734380
0.484380
0.359380
0.349610
0.339840
0.339840
0.330080
0.324220
0.330080
0.324220
0.330080
0.335940
0.339840
0.349610
0.359380
0.365230
0.375000
0.375000
0.390620
0.400390
0.416020
0.429690
0.435550
0.445310
0.445310
0.439450
0.439450
0.429690
0.419920
0.416020
0.404300
0.390620
0.375000
0.371090
0.371090
0.365230
0.365230
0.371090
0.371090
0.375000
0.359380
0.355470
0.359380
0.365230
0.371090
0.371090
0.365230
0.365230
0.365230
0.365230
0.359380
0.365230
0.371090
0.359380
0.384770
0.416020
0.429690
0.455080
0.439450
0.435550
0.429690
0.416020
0.416020
0.400390
0.380860
0.371090
0.359380
0.349610
0.349610
0.355470
0.359380
0.365230
0.404300
0.449220
0.494140
0.644530
0.744140
0.654300
0.419920
0.365230
0.359380
0.345700
0.339840
0.339840
0.335940
0.335940
0.335940
0.330080
0.330080
0.335940
0.339840
0.355470
0.359380
0.365230
0.371090
0.380860
0.384770
0.394530
0.410160
0.419920
0.435550
0.435550
0.439450
0.439450
0.435550
0.435550
0.435550
0.425780
0.416020
0.404300
0.390620
0.390620
0.380860
0.380860
0.380860
0.380860
0.384770
0.380860
0.380860
0.384770
0.380860
0.390620
0.404300
0.416020
0.435550
0.460940
0.445310
0.435550
0.416020
0.416020
0.400390
0.375000
0.355470
0.335940
0.330080
0.330080
0.320310
0.324220
0.330080
0.335940
0.355470
0.400390
0.449220
0.544920
0.699220
0.730470
0.474610
0.349610
0.330080
0.324220
0.324220
0.324220
0.310550
0.304690
0.310550
0.320310
0.310550
0.314450
0.320310
0.320310
0.330080
0.339840
0.349610
0.359380
0.365230
0.375000
0.390620
0.400390
0.416020
0.404300
0.416020
0.419920
0.416020
0.410160
0.404300
0.410160
0.394530
0.375000
0.371090
0.365230
0.355470
0.355470
0.359380
0.345700
0.345700
0.355470
0.359380
0.365230
0.365230
0.371090
0.390620
0.410160
0.429690
0.435550
0.419920
0.404300
0.384770
0.390620
0.375000
0.365230
0.345700
0.335940
0.324220
0.330080
0.330080
0.339840
0.339840
0.359380
0.416020
0.460940
0.500000
0.699220
0.855470
0.785160
0.535160
0.400390
0.324220
0.300780
0.294920
0.279300
0.279300
0.275390
0.275390
0.279300
0.275390
0.285160
0.291020
0.294920
0.294920
0.294920
0.300780
0.310550
0.320310
0.320310
0.339840
0.349610
0.359380
0.365230
0.375000
0.380860
0.384770
0.390620
0.390620
0.390620
0.375000
0.371090
0.371090
0.365230
0.365230
0.365230
0.365230
0.365230
0.365230
0.365230
0.365230
0.365230
0.380860
0.390620
0.404300
0.429690
0.439450
0.435550
0.419920
0.410160
0.404300
0.410160
0.390620
0.365230
0.345700
0.335940
0.335940
0.335940
0.335940
0.330080
0.335940
0.359380
0.394530
0.429690
0.509770
0.640620
0.664060
0.455080
0.335940
0.339840
0.339840
0.335940
0.339840
0.335940
0.335940
0.335940
0.339840
0.345700
0.349610
0.355470
0.359380
0.365230
0.375000
0.390620
0.394530
0.410160
0.419920
0.425780
0.435550
0.449220
0.460940
0.460940
0.455080
0.460940
0.455080
0.439450
0.425780
0.410160
0.394530
0.390620
0.380860
0.375000
0.375000
0.375000
0.375000
0.384770
0.384770
0.384770
0.380860
0.380860
0.390620
0.404300
0.419920
0.449220
0.439450
0.425780
0.410160
0.400390
0.404300
0.390620
0.371090
0.345700
0.339840
0.339840
0.339840
0.330080
0.335940
0.339840
0.345700
0.390620
0.425780
0.460940
0.628910
0.679690
0.554690
0.355470
0.339840
0.339840
0.335940
0.330080
0.330080
0.330080
0.324220
0.330080
0.330080
0.335940
0.335940
0.345700
0.349610
0.365230
0.365230
0.375000
0.390620
0.404300
0.410160
0.425780
0.435550
0.435550
0.445310
0.445310
0.439450
0.435550
0.429690
0.416020
0.410160
0.390620
0.384770
0.371090
0.365230
0.365230
0.365230
0.365230
0.365230
0.365230
0.365230
0.365230
0.365230
0.375000
0.390620
0.400390
0.419920
0.425780
0.416020
0.400390
0.390620
0.390620
0.375000
0.359380
0.339840
0.330080
0.320310
0.320310
0.324220
0.324220
0.324220
0.330080
0.359380
0.400390
0.425780
0.550780
0.650390
0.609380
0.390620
0.320310
0.324220
0.320310
0.320310
0.314450
0.314450
0.320310
0.324220
0.324220
0.324220
0.335940
0.339840
0.345700
0.359380
0.375000
0.390620
0.400390
0.416020
0.425780
0.435550
0.449220
0.460940
0.464840
0.464840
0.460940
0.460940
0.455080
0.439450
0.425780
0.416020
0.400390
0.390620
0.390620
0.375000
0.375000
0.375000
0.380860
0.384770
0.384770
0.380860
0.380860
0.390620
0.404300
0.416020
0.429690
0.449220
0.439450
0.435550
0.416020
0.416020
0.404300
0.394530
0.380860
0.359380
0.345700
0.339840
0.339840
0.345700
0.345700
0.355470
0.371090
0.410160
0.449220
0.500000
0.664060
0.708980
0.539060
0.365230
0.355470
0.349610
0.355470
0.349610
0.339840
0.339840
0.339840
0.345700
0.349610
0.349610
0.359380
0.365230
0.371090
0.375000
0.384770
0.390620
0.394530
0.410160
0.419920
0.435550
0.439450
0.455080
0.455080
0.455080
0.455080
0.455080
0.445310
0.429690
0.416020
0.400390
0.390620
0.384770
0.380860
0.380860
0.380860
0.384770
0.384770
0.384770
0.380860
0.390620
0.380860
0.390620
0.404300
0.416020
0.445310
0.455080
0.429690
0.419920
0.404300
0.400390
0.390620
0.375000
0.355470
0.339840
0.330080
0.324220
0.330080
0.330080
0.330080
0.330080
0.371090
0.416020
0.460940
0.589840
0.708980
0.720700
0.419920
0.339840
0.320310
0.320310
0.314450
0.310550
0.310550
0.304690
0.310550
0.314450
0.314450
0.320310
0.324220
0.335940
0.339840
0.349610
0.349610
0.359380
0.371090
0.390620
0.394530
0.410160
0.410160
0.416020
0.419920
0.425780
0.419920
0.419920
0.410160
0.400390
0.390620
0.375000
0.365230
0.365230
0.359380
0.355470
0.349610
0.355470
0.365230
0.365230
0.365230
0.359380
0.365230
0.380860
0.394530
0.416020
0.435550
0.425780
0.416020
0.394530
0.384770
0.384770
0.365230
0.345700
0.330080
0.320310
0.320310
0.320310
0.320310
0.320310
0.320310
0.339840
0.394530
0.439450
0.494140
0.660160
0.689450
0.515620
0.355470
0.335940
0.320310
0.314450
0.310550
0.304690
0.314450
0.314450
0.320310
0.320310
0.320310
0.324220
0.335940
0.339840
0.345700
0.349610
0.359380
0.371090
0.375000
0.380860
0.390620
0.404300
0.416020
0.416020
0.419920
0.416020
0.425780
0.419920
0.410160
0.380860
0.384770
0.380860
0.380860
0.375000
0.365230
0.365230
0.371090
0.375000
0.380860
0.371090
0.371090
0.375000
0.390620
0.416020
0.419920
0.439450
0.445310
0.429690
0.416020
0.410160
0.404300
0.410160
0.390620
0.371090
0.355470
0.339840
0.339840
0.345700
0.339840
0.345700
0.345700
0.384770
0.419920
0.460940
0.615230
0.689450
0.634770
0.410160
0.355470
0.349610
0.355470
0.349610
0.339840
0.345700
0.349610
0.339840
0.339840
0.349610
0.345700
0.355470
0.359380
0.365230
0.375000
0.390620
0.404300
0.416020
0.429690
0.435550
0.449220
0.455080
0.455080
0.460940
0.460940
0.445310
0.439450
0.435550
0.425780
0.416020
0.394530
0.394530
0.390620
0.380860
0.380860
0.380860
0.380860
0.380860
0.384770
0.390620
0.384770
0.390620
0.410160
0.419920
0.435550
0.445310
0.435550
0.429690
0.416020
0.410160
0.416020
0.390620
0.365230
0.345700
0.339840
0.339840
0.335940
0.330080
0.324220
0.330080
0.355470
0.400390
0.439450
0.505860
0.654300
0.685550
0.490230
0.339840
0.345700
0.339840
0.339840
0.330080
0.330080
0.330080
0.330080
0.330080
0.335940
0.339840
0.339840
0.339840
0.349610
0.365230
0.371090
0.375000
0.390620
0.400390
0.416020
0.425780
0.435550
0.439450
0.439450
0.439450
0.439450
0.435550
0.429690
0.419920
0.410160
0.400390
0.390620
0.380860
0.375000
0.371090
0.375000
0.375000
0.375000
0.375000
0.380860
0.380860
0.384770
0.390620
0.410160
0.416020
0.435550
0.439450
0.425780
0.416020
0.400390
0.404300
0.390620
0.375000
0.355470
0.339840
0.339840
0.339840
0.339840
0.335940
0.335940
0.339840
0.375000
0.419920
0.455080
0.609380
0.685550
0.605470
0.380860
0.345700
0.345700
0.345700
0.339840
0.339840
0.339840
0.339840
0.335940
0.339840
0.335940
0.339840
0.339840
0.355470
0.359380
0.365230
0.371090
0.380860
0.390620
0.400390
0.416020
0.425780
0.435550
0.435550
0.435550
0.435550
0.435550
0.435550
0.419920
0.404300
0.390620
0.384770
0.371090
0.365230
0.365230
0.365230
0.365230
0.365230
0.371090
0.380860
0.380860
0.380860
0.384770
0.400390
0.416020
0.425780
0.445310
0.435550
0.419920
0.416020
0.404300
0.410160
0.390620
0.365230
0.349610
0.339840
0.339840
0.335940
0.335940
0.339840
0.339840
0.371090
0.410160
0.449220
0.515620
0.654300
0.689450
0.505860
0.355470
0.349610
0.349610
0.349610
0.349610
0.339840
0.339840
0.339840
0.345700
0.345700
0.349610
0.355470
0.365230
0.365230
0.375000
0.384770
0.390620
0.404300
0.416020
0.425780
0.435550
0.445310
0.460940
0.460940
0.460940
0.460940
0.449220
0.439450
0.429690
0.419920
0.404300
0.394530
0.390620
0.390620
0.390620
0.390620
0.390620
0.390620
0.384770
0.390620
0.390620
0.390620
0.394530
0.416020
0.425780
0.449220
0.460940
0.449220
0.429690
0.416020
0.416020
0.404300
0.390620
0.371090
0.355470
0.345700
0.339840
0.345700
0.349610
0.339840
0.345700
0.384770
0.425780
0.474610
0.619140
0.730470
0.669920
0.429690
0.355470
0.339840
0.335940
0.324220
0.324220
0.320310
0.324220
0.324220
0.324220
0.320310
0.324220
0.330080
0.339840
0.349610
0.349610
0.365230
0.365230
0.384770
0.390620
0.394530
0.410160
0.416020
0.425780
0.425780
0.425780
0.425780
0.419920
0.419920
0.404300
0.390620
0.380860
0.371090
0.371090
0.371090
0.365230
0.365230
0.365230
0.365230
0.371090
0.371090
0.371090
0.371090
0.390620
0.410160
0.425780
0.445310
0.435550
0.419920
0.410160
0.400390
0.394530
0.384770
0.365230
0.335940
0.330080
0.330080
0.320310
0.324220
0.330080
0.330080
0.345700
0.394530
0.439450
0.505860
0.664060
0.705080
0.519530
0.355470
0.339840
0.339840
0.330080
0.330080
0.324220
0.320310
0.320310
0.320310
0.324220
0.324220
0.335940
0.339840
0.345700
0.359380
0.365230
0.375000
0.390620
0.394530
0.404300
0.416020
0.419920
0.425780
0.435550
0.435550
0.439450
0.435550
0.435550
0.425780
0.416020
0.404300
0.394530
0.390620
0.384770
0.384770
0.384770
0.380860
0.380860
0.384770
0.384770
0.384770
0.390620
0.394530
0.416020
0.429690
0.449220
0.460940
0.439450
0.429690
0.416020
0.416020
0.400390
0.390620
0.365230
0.345700
0.339840
0.335940
0.330080
0.330080
0.330080
0.335940
0.371090
0.410160
0.439450
0.580080
0.675780
0.679690
0.419920
0.339840
0.339840
0.330080
0.330080
0.330080
0.330080
0.324220
0.335940
0.339840
0.339840
0.349610
0.355470
0.365230
0.375000
0.384770
0.394530
0.404300
0.416020
0.425780
0.435550
0.435550
0.445310
0.455080
0.449220
0.449220
0.445310
0.445310
0.435550
0.419920
0.416020
0.400390
0.390620
0.384770
0.380860
0.384770
0.384770
0.384770
0.384770
0.384770
0.380860
0.380860
0.380860
0.394530
0.410160
0.419920
0.449220
0.445310
0.429690
0.416020
0.404300
0.410160
0.390620
0.371090
0.349610
0.339840
0.339840
0.335940
0.339840
0.339840
0.339840
0.355470
0.394530
0.429690
0.470700
0.640620
0.689450
0.560550
0.359380
0.339840
0.349610
0.339840
0.335940
0.330080
0.330080
0.335940
0.330080
0.335940
0.339840
0.339840
0.339840
0.349610
0.365230
0.371090
0.380860
0.390620
0.394530
0.410160
0.425780
0.435550
0.435550
0.439450
0.445310
0.439450
0.435550
0.435550
0.425780
0.416020
0.400390
0.390620
0.380860
0.375000
0.375000
0.375000
0.375000
0.375000
0.375000
0.380860
0.380860
0.380860
0.384770
0.394530
0.410160
0.425780
0.435550
0.425780
0.416020
0.400390
0.394530
0.400390
0.380860
0.355470
0.339840
0.335940
0.330080
0.330080
0.330080
0.335940
0.335940
0.365230
0.404300
0.439450
0.519530
0.660160
0.685550
0.460940
0.330080
0.335940
0.330080
0.330080
0.324220
0.320310
0.320310
0.324220
0.330080
0.324220
0.330080
0.335940
0.339840
0.349610
0.365230
0.375000
0.390620
0.394530
0.410160
0.416020
0.429690
0.435550
0.439450
0.445310
0.439450
0.435550
0.429690
0.429690
0.419920
0.404300
0.390620
0.380860
0.365230
0.359380
0.359380
0.355470
0.359380
0.365230
0.371090
0.375000
0.380860
0.384770
0.390620
0.410160
0.419920
0.449220
0.455080
0.439450
0.429690
0.419920
0.416020
0.400390
0.384770
0.365230
0.349610
0.345700
0.339840
0.335940
0.335940
0.339840
0.339840
0.380860
0.419920
0.455080
0.595700
0.689450
0.644530
0.410160
0.349610
0.345700
0.345700
0.339840
0.335940
0.335940
0.335940
0.335940
0.335940
0.339840
0.339840
0.339840
0.349610
0.359380
0.371090
0.380860
0.390620
0.400390
0.404300
0.419920
0.429690
0.439450
0.455080
0.460940
0.455080
0.455080
0.460940
0.449220
0.435550
0.419920
0.410160
0.394530
0.390620
0.390620
0.390620
0.390620
0.390620
0.390620
0.390620
0.390620
0.390620
0.400390
0.404300
0.419920
0.435550
0.460940
0.460940
0.449220
0.435550
0.419920
0.419920
0.394530
0.380860
0.365230
0.349610
0.339840
0.339840
0.339840
0.339840
0.335940
0.339840
0.394530
0.439450
0.484380
0.660160
0.740230
0.605470
0.375000
0.345700
0.330080
0.324220
0.320310
0.314450
0.320310
0.320310
0.320310
0.320310
0.320310
0.330080
0.335940
0.339840
0.345700
0.355470
0.365230
0.371090
0.380860
0.390620
0.394530
0.410160
0.416020
0.425780
0.435550
0.429690
0.419920
0.416020
0.410160
0.404300
0.390620
0.384770
0.375000
0.371090
0.375000
0.375000
0.380860
0.380860
0.384770
0.380860
0.384770
0.380860
0.384770
0.390620
0.416020
0.429690
0.455080
0.445310
0.429690
0.410160
0.404300
0.410160
0.384770
0.365230
0.339840
0.339840
0.330080
0.324220
0.330080
0.330080
0.324220
0.345700
0.390620
0.439450
0.509770
0.679690
0.714840
0.515620
0.345700
0.335940
0.324220
0.314450
0.314450
0.320310
0.314450
0.320310
0.314450
0.310550
0.320310
0.320310
0.324220
0.335940
0.345700
0.355470
0.359380
0.371090
0.384770
0.394530
0.410160
0.419920
0.419920
0.435550
0.435550
0.435550
0.429690
0.425780
0.416020
0.410160
0.400390
0.390620
0.390620
0.375000
0.371090
0.371090
0.375000
0.375000
0.380860
0.380860
0.384770
0.390620
0.390620
0.410160
0.419920
0.435550
0.449220
0.435550
0.435550
0.416020
0.404300
0.410160
0.394530
0.380860
0.365230
0.349610
0.349610
0.349610
0.345700
0.345700
0.349610
0.371090
0.410160
0.455080
0.535160
0.689450
0.714840
0.500000
0.365230
0.349610
0.345700
0.345700
0.339840
0.335940
0.335940
0.335940
0.339840
0.335940
0.339840
0.345700
0.359380
0.365230
0.365230
0.384770
0.390620
0.400390
0.416020
0.419920
0.435550
0.445310
0.455080
0.445310
0.460940
0.445310
0.445310
0.449220
0.445310
0.429690
0.416020
0.400390
0.394530
0.394530
0.394530
0.394530
0.394530
0.390620
0.394530
0.404300
0.410160
0.400390
0.400390
0.416020
0.435550
0.455080
0.464840
0.449220
0.435550
0.425780
0.416020
0.410160
0.390620
0.371090
0.355470
0.345700
0.339840
0.339840
0.345700
0.349610
0.355470
0.390620
0.429690
0.460940
0.580080
0.705080
0.714840
0.439450
0.355470
0.349610
0.345700
0.339840
0.339840
0.339840
0.339840
0.330080
0.339840
0.339840
0.339840
0.339840
0.355470
0.365230
0.371090
0.384770
0.400390
0.410160
0.419920
0.435550
0.435550
0.445310
0.455080
0.460940
0.449220
0.449220
0.449220
0.439450
0.435550
0.416020
0.410160
0.400390
0.390620
0.390620
0.384770
0.384770
0.390620
0.384770
0.390620
0.384770
0.390620
0.390620
0.390620
0.416020
0.419920
0.439450
0.445310
0.429690
0.416020
0.410160
0.410160
0.390620
0.375000
0.359380
0.345700
0.345700
0.339840
0.339840
0.339840
0.339840
0.355470
0.384770
0.429690
0.455080
0.615230
0.695310
0.619140
0.390620
0.339840
0.345700
0.339840
0.335940
0.324220
0.330080
0.324220
0.330080
0.335940
0.339840
0.339840
0.345700
0.355470
0.359380
0.375000
0.384770
0.390620
0.400390
0.416020
0.419920
0.435550
0.439450
0.449220
0.445310
0.445310
0.449220
0.439450
0.435550
0.419920
0.410160
0.394530
0.390620
0.380860
0.375000
0.375000
0.371090
0.384770
0.384770
0.384770
0.390620
0.390620
0.390620
0.400390
0.416020
0.425780
0.445310
0.449220
0.435550
0.416020
0.404300
0.410160
0.394530
0.380860
0.359380
0.355470
0.349610
0.339840
0.339840
0.339840
0.345700
0.359380
0.404300
0.445310
0.474610
0.644530
0.705080
0.574220
0.375000
0.355470
0.355470
0.349610
0.339840
0.330080
0.324220
0.320310
0.324220
0.324220
0.330080
0.335940
0.339840
0.345700
0.359380
0.371090
0.390620
0.400390
0.404300
0.416020
0.419920
0.435550
0.445310
0.449220
0.445310
0.449220
0.455080
0.445310
0.435550
0.419920
0.410160
0.394530
0.384770
0.375000
0.380860
0.375000
0.384770
0.390620
0.394530
0.394530
0.394530
0.390620
0.394530
0.404300
0.416020
0.435550
0.460940
0.449220
0.439450
0.429690
0.425780
0.416020
0.404300
0.384770
0.365230
0.349610
0.349610
0.349610
0.345700
0.345700
0.349610
0.371090
0.419920
0.464840
0.519530
0.679690
0.720700
0.564450
0.371090
0.355470
0.345700
0.339840
0.339840
0.335940
0.330080
0.330080
0.330080
0.335940
0.335940
0.339840
0.339840
0.349610
0.359380
0.365230
0.375000
0.390620
0.394530
0.404300
0.416020
0.425780
0.435550
0.435550
0.435550
0.439450
0.439450
0.435550
0.419920
0.410160
0.394530
0.384770
0.371090
0.371090
0.365230
0.365230
0.365230
0.371090
0.371090
0.375000
0.375000
0.375000
0.384770
0.394530
0.416020
0.429690
0.445310
0.439450
0.429690
0.416020
0.404300
0.394530
0.380860
0.359380
0.339840
0.330080
0.330080
0.335940
0.324220
0.324220
0.330080
0.359380
0.404300
0.460940
0.554690
0.705080
0.730470
0.470700
0.345700
0.335940
0.320310
0.320310
0.314450
0.304690
0.310550
0.310550
0.314450
0.320310
0.320310
0.320310
0.330080
0.339840
0.345700
0.349610
0.365230
0.380860
0.390620
0.404300
0.410160
0.416020
0.416020
0.425780
0.429690
0.425780
0.425780
0.416020
0.416020
0.394530
0.390620
0.380860
0.375000
0.375000
0.371090
0.371090
0.365230
0.371090
0.375000
0.375000
0.375000
0.375000
0.384770
0.394530
0.416020
0.435550
0.439450
0.425780
0.416020
0.394530
0.390620
0.384770
0.365230
0.345700
0.339840
0.330080
0.324220
0.320310
0.324220
0.320310
0.330080
0.359380
0.400390
0.439450
0.554690
0.679690
0.695310
0.439450
0.339840
0.330080
0.324220
0.320310
0.320310
0.314450
0.310550
0.320310
0.314450
0.320310
0.320310
0.330080
0.335940
0.345700
0.359380
0.365230
0.380860
0.390620
0.394530
0.416020
0.429690
0.435550
0.435550
0.435550
0.435550
0.439450
0.435550
0.429690
0.416020
0.410160
0.394530
0.390620
0.371090
0.371090
0.365230
0.365230
0.359380
0.359380
0.359380
0.359380
0.355470
0.349610
0.359380
0.375000
0.390620
0.416020
0.419920
0.410160
0.394530
0.384770
0.390620
0.375000
0.365230
0.349610
0.339840
0.330080
0.324220
0.330080
0.330080
0.335940
0.330080
0.380860
0.419920
0.455080
0.599610
0.689450
0.625000
0.404300
0.339840
0.345700
0.339840
0.339840
0.330080
0.330080
0.330080
0.324220
0.335940
0.339840
0.339840
0.339840
0.349610
0.359380
0.365230
0.375000
0.390620
0.404300
0.416020
0.429690
0.439450
0.445310
0.449220
0.460940
0.460940
0.445310
0.439450
0.435550
0.429690
0.416020
0.404300
0.390620
0.390620
0.384770
0.384770
0.384770
0.384770
0.390620
0.390620
0.384770
0.390620
0.390620
0.400390
0.416020
0.425780
0.445310
0.455080
0.439450
0.419920
0.404300
0.404300
0.390620
0.375000
0.355470
0.339840
0.335940
0.335940
0.339840
0.339840
0.335940
0.330080
0.375000
0.419920
0.455080
0.619140
0.714840
0.625000
0.394530
0.339840
0.339840
0.324220
0.320310
0.320310
0.314450
0.314450
0.310550
0.314450
0.320310
0.320310
0.320310
0.339840
0.339840
0.349610
0.359380
0.371090
0.380860
0.390620
0.404300
0.416020
0.419920
0.429690
0.435550
0.429690
0.435550
0.429690
0.416020
0.404300
0.390620
0.384770
0.375000
0.375000
0.375000
0.375000
0.380860
0.375000
0.375000
0.375000
0.375000
0.380860
0.380860
0.380860
0.390620
0.410160
0.429690
0.435550
0.419920
0.404300
0.390620
0.394530
0.380860
0.365230
0.335940
0.324220
0.320310
0.320310
0.314450
0.320310
0.314450
0.330080
0.371090
0.419920
0.470700
0.650390
0.720700
0.589840
0.365230
0.330080
0.320310
0.310550
0.300780
0.300780
0.294920
0.300780
0.304690
0.300780
0.304690
0.310550
0.320310
0.324220
0.339840
0.339840
0.355470
0.365230
0.375000
0.390620
0.400390
0.410160
0.416020
0.419920
0.425780
0.425780
0.425780
0.416020
0.410160
0.400390
0.390620
0.384770
0.375000
0.371090
0.365230
0.371090
0.371090
0.375000
0.371090
0.371090
0.371090
0.380860
0.380860
0.384770
0.400390
0.419920
0.435550
0.435550
0.425780
0.404300
0.394530
0.390620
0.371090
0.365230
0.345700
0.330080
0.324220
0.324220
0.320310
0.320310
0.320310
0.335940
0.384770
0.429690
0.484380
0.660160
0.708980
0.550780
0.359380
0.335940
0.335940
0.335940
0.324220
0.320310
0.320310
0.320310
0.320310
0.330080
0.330080
0.330080
0.335940
0.339840
0.349610
0.365230
0.380860
0.390620
0.394530
0.410160
0.419920
0.435550
0.435550
0.439450
0.445310
0.445310
0.449220
0.439450
0.425780
0.416020
0.404300
0.390620
0.390620
0.384770
0.380860
0.384770
0.390620
0.390620
0.384770
0.384770
0.390620
0.390620
0.394530
0.416020
0.425780
0.445310
0.460940
0.449220
0.435550
0.425780
0.425780
0.429690
0.394530
0.371090
0.359380
0.355470
0.349610
0.339840
0.345700
0.345700
0.345700
0.359380
0.404300
0.449220
0.509770
0.675780
0.705080
0.519530
0.355470
0.345700
0.349610
0.345700
0.339840
0.335940
0.330080
0.324220
0.330080
0.324220
0.339840
0.330080
0.339840
0.355470
0.365230
0.375000
0.384770
0.404300
0.416020
0.429690
0.439450
0.449220
0.449220
0.449220
0.445310
0.439450
0.445310
0.439450
0.429690
0.416020
0.404300
0.394530
0.390620
0.384770
0.380860
0.375000
0.375000
0.380860
0.380860
0.384770
0.380860
0.380860
0.380860
0.390620
0.404300
0.425780
0.435550
0.429690
0.416020
0.400390
0.400390
0.404300
0.375000
0.359380
0.339840
0.335940
0.324220
0.330080
0.324220
0.324220
0.335940
0.355470
0.394530
0.435550
0.525390
0.669920
0.695310
0.480470
0.335940
0.339840
0.339840
0.330080
0.320310
0.320310
0.320310
0.320310
0.324220
0.324220
0.330080
0.335940
0.345700
0.349610
0.355470
0.365230
0.384770
0.390620
0.404300
0.416020
0.429690
0.435550
0.439450
0.445310
0.445310
0.445310
0.439450
0.435550
0.425780
0.416020
0.394530
0.390620
0.380860
0.375000
0.371090
0.371090
0.375000
0.380860
0.380860
0.380860
0.380860
0.380860
0.384770
0.394530
0.416020
0.435550
0.449220
0.435550
0.419920
0.410160
0.404300
0.394530
0.380860
0.359380
0.345700
0.339840
0.339840
0.330080
0.330080
0.339840
0.335940
0.359380
0.400390
0.439450
0.544920
0.675780
0.695310
0.464840
0.339840
0.345700
0.339840
0.330080
0.330080
0.324220
0.320310
0.330080
0.330080
0.335940
0.335940
0.345700
0.349610
0.359380
0.365230
0.380860
0.390620
0.394530
0.410160
0.419920
0.435550
0.449220
0.449220
0.455080
0.455080
0.460940
0.449220
0.445310
0.435550
0.419920
0.404300
0.390620
0.390620
0.384770
0.380860
0.384770
0.384770
0.390620
0.390620
0.390620
0.390620
0.390620
0.390620
0.404300
0.419920
0.439450
0.460940
0.445310
0.435550
0.416020
0.416020
0.404300
0.394530
0.375000
0.365230
0.355470
0.345700
0.339840
0.339840
0.345700
0.339840
0.371090
0.419920
0.460940
0.544920
0.689450
0.720700
0.490230
0.355470
0.339840
0.330080
0.330080
0.320310
0.320310
0.314450
0.320310
0.324220
0.330080
0.330080
0.339840
0.345700
0.355470
0.365230
0.371090
0.375000
0.384770
0.390620
0.410160
0.419920
0.429690
0.439450
0.439450
0.439450
0.435550
0.435550
0.429690
0.419920
0.404300
0.394530
0.390620
0.384770
0.380860
0.380860
0.380860
0.384770
0.380860
0.380860
0.384770
0.384770
0.380860
0.390620
0.404300
0.419920
0.445310
0.460940
0.439450
0.429690
0.416020
0.410160
0.400390
0.380860
0.359380
0.339840
0.339840
0.330080
0.324220
0.324220
0.330080
0.330080
0.359380
0.410160
0.455080
0.574220
0.724610
0.744140
0.464840
0.345700
0.324220
0.320310
0.314450
0.304690
0.300780
0.294920
0.300780
0.304690
0.300780
0.304690
0.310550
0.314450
0.320310
0.330080
0.339840
0.355470
0.365230
0.371090
0.390620
0.404300
0.416020
0.419920
0.419920
0.419920
0.425780
0.419920
0.416020
0.410160
0.400390
0.390620
0.380860
0.375000
0.375000
0.365230
0.365230
0.365230
0.371090
0.375000
0.375000
0.380860
0.375000
0.390620
0.400390
0.416020
0.435550
0.439450
0.419920
0.416020
0.394530
0.390620
0.380860
0.365230
0.355470
0.335940
0.330080
0.324220
0.320310
0.320310
0.320310
0.330080
0.355470
0.404300
0.455080
0.580080
0.699220
0.714840
0.439450
0.339840
0.324220
0.320310
0.320310
0.310550
0.314450
0.300780
0.304690
0.314450
0.320310
0.320310
0.320310
0.324220
0.339840
0.339840
0.355470
0.365230
0.380860
0.390620
0.400390
0.416020
0.419920
0.425780
0.429690
0.429690
0.429690
0.425780
0.416020
0.404300
0.394530
0.384770
0.380860
0.375000
0.371090
0.375000
0.380860
0.375000
0.375000
0.380860
0.380860
0.380860
0.380860
0.390620
0.404300
0.416020
0.435550
0.445310
0.425780
0.416020
0.410160
0.404300
0.394530
0.380860
0.359380
0.339840
0.339840
0.335940
0.335940
0.335940
0.339840
0.345700
0.380860
0.419920
0.460940
0.589840
0.699220
0.705080
0.435550
0.339840
0.339840
0.345700
0.339840
0.335940
0.330080
0.324220
0.324220
0.330080
0.339840
0.339840
0.339840
0.349610
0.359380
0.375000
0.390620
0.394530
0.410160
0.416020
0.416020
0.435550
0.435550
0.439450
0.439450
0.445310
0.435550
0.439450
0.429690
0.416020
0.400390
0.390620
0.384770
0.375000
0.375000
0.380860
0.384770
0.390620
0.390620
0.390620
0.390620
0.394530
0.390620
0.404300
0.419920
0.425780
0.449220
0.460940
0.445310
0.429690
0.416020
0.416020
0.404300
0.390620
0.365230
0.349610
0.345700
0.349610
0.349610
0.349610
0.349610
0.355470
0.390620
0.429690
0.455080
0.589840
0.695310
0.705080
0.439450
0.355470
0.355470
0.355470
0.345700
0.339840
0.339840
0.339840
0.335940
0.339840
0.339840
0.339840
0.355470
0.359380
0.365230
0.380860
0.390620
0.404300
0.416020
0.425780
0.435550
0.449220
0.460940
0.460940
0.460940
0.464840
0.464840
0.460940
0.455080
0.435550
0.425780
0.416020
0.410160
0.400390
0.400390
0.400390
0.394530
0.394530
0.400390
0.404300
0.400390
0.400390
0.400390
0.404300
0.416020
0.429690
0.449220
0.460940
0.445310
0.435550
0.416020
0.416020
0.400390
0.390620
0.365230
0.355470
0.339840
0.339840
0.335940
0.335940
0.335940
0.335940
0.371090
0.410160
0.455080
0.554690
0.705080
0.730470
0.484380
0.345700
0.330080
0.320310
0.320310
0.320310
0.314450
0.310550
0.310550
0.320310
0.314450
0.314450
0.324220
0.330080
0.339840
0.349610
0.365230
0.371090
0.380860
0.390620
0.400390
0.404300
0.419920
0.429690
0.429690
0.429690
0.425780
0.425780
0.419920
0.410160
0.394530
0.380860
0.371090
0.365230
0.365230
0.359380
0.365230
0.365230
0.365230
0.371090
0.371090
0.375000
0.371090
0.384770
0.390620
0.404300
0.429690
0.445310
0.435550
0.416020
0.404300
0.394530
0.390620
0.375000
0.355470
0.335940
0.324220
0.320310
0.320310
0.320310
0.320310
0.320310
0.345700
0.390620
0.435550
0.505860
0.679690
0.720700
0.519530
0.345700
0.324220
0.314450
0.310550
0.304690
0.300780
0.294920
0.294920
0.300780
0.300780
0.310550
0.314450
0.320310
0.330080
0.339840
0.349610
0.355470
0.365230
0.371090
0.384770
0.394530
0.410160
0.410160
0.416020
0.416020
0.416020
0.425780
0.416020
0.400390
0.390620
0.384770
0.371090
0.365230
0.365230
0.365230
0.359380
0.365230
0.371090
0.371090
0.365230
0.359380
0.365230
0.365230
0.375000
0.400390
0.419920
0.429690
0.416020
0.410160
0.394530
0.384770
0.390620
0.375000
0.345700
0.324220
0.320310
0.314450
0.310550
0.320310
0.320310
0.324220
0.335940
0.365230
0.416020
0.464840
0.644530
0.708980
0.560550
0.355470
0.339840
0.330080
0.320310
0.314450
0.310550
0.314450
0.304690
0.300780
0.320310
0.324220
0.324220
0.335940
0.349610
0.359380
0.371090
0.380860
0.390620
0.400390
0.416020
0.429690
0.435550
0.435550
0.439450
0.445310
0.445310
0.439450
0.445310
0.429690
0.425780
0.410160
0.404300
0.390620
0.390620
0.390620
0.380860
0.380860
0.380860
0.390620
0.390620
0.390620
0.390620
0.390620
0.410160
0.425780
0.429690
0.445310
0.445310
0.435550
0.419920
0.416020
0.410160
0.390620
0.375000
0.359380
0.339840
0.330080
0.335940
0.339840
0.339840
0.339840
0.335940
0.384770
0.429690
0.460940
0.628910
0.708980
0.605470
0.371090
0.339840
0.339840
0.335940
0.335940
0.330080
0.324220
0.330080
0.324220
0.330080
0.335940
0.330080
0.339840
0.345700
0.355470
0.365230
0.365230
0.380860
0.394530
0.410160
0.419920
0.425780
0.435550
0.435550
0.435550
0.435550
0.435550
0.435550
0.425780
0.416020
0.400390
0.390620
0.375000
0.365230
0.365230
0.371090
0.365230
0.371090
0.371090
0.365230
0.371090
0.371090
0.380860
0.390620
0.394530
0.404300
0.429690
0.435550
0.419920
0.404300
0.390620
0.390620
0.380860
0.359380
0.339840
0.324220
0.330080
0.324220
0.324220
0.330080
0.324220
0.335940
0.371090
0.419920
0.439450
0.595700
0.689450
0.619140
0.390620
0.335940
0.339840
0.335940
0.330080
0.320310
0.320310
0.320310
0.320310
0.324220
0.335940
0.339840
0.335940
0.345700
0.355470
0.365230
0.371090
0.390620
0.394530
0.404300
0.416020
0.425780
0.439450
0.439450
0.439450
0.439450
0.439450
0.435550
0.425780
0.416020
0.394530
0.390620
0.380860
0.371090
0.371090
0.371090
0.371090
0.371090
0.371090
0.371090
0.371090
0.371090
0.371090
0.384770
0.404300
0.416020
0.429690
0.435550
0.425780
0.404300
0.394530
0.400390
0.390620
0.371090
0.355470
0.339840
0.339840
0.339840
0.335940
0.335940
0.339840
0.339840
0.371090
0.410160
0.445310
0.570310
0.685550
0.689450
0.429690
0.339840
0.345700
0.339840
0.339840
0.324220
0.324220
0.324220
0.324220
0.330080
0.330080
0.335940
0.339840
0.349610
0.355470
0.365230
0.375000
0.384770
0.394530
0.410160
0.419920
0.435550
0.445310
0.449220
0.455080
0.460940
0.449220
0.439450
0.435550
0.425780
0.416020
0.400390
0.390620
0.380860
0.375000
0.371090
0.371090
0.371090
0.375000
0.380860
0.375000
0.375000
0.380860
0.390620
0.400390
0.416020
0.429690
0.445310
0.439450
0.425780
0.416020
0.400390
0.404300
0.380860
0.365230
0.339840
0.335940
0.330080
0.330080
0.335940
0.330080
0.330080
0.355470
0.410160
0.449220
0.519530
0.685550
0.724610
0.535160
0.355470
0.339840
0.335940
0.324220
0.320310
0.320310
0.314450
0.320310
0.324220
0.324220
0.330080
0.330080
0.339840
0.339840
0.359380
0.365230
0.380860
0.384770
0.394530
0.404300
0.416020
0.435550
0.435550
0.435550
0.435550
0.435550
0.435550
0.429690
0.416020
0.404300
0.390620
0.375000
0.371090
0.371090
0.371090
0.371090
0.371090
0.375000
0.375000
0.380860
0.380860
0.380860
0.380860
0.400390
0.416020
0.425780
0.455080
0.445310
0.435550
0.416020
0.410160
0.404300
0.390620
0.371090
0.345700
0.335940
0.330080
0.320310
0.320310
0.324220
0.324220
0.335940
0.384770
0.425780
0.484380
0.660160
0.734380
0.589840
0.365230
0.339840
0.324220
0.320310
0.320310
0.314450
0.310550
0.310550
0.310550
0.314450
0.310550
0.314450
0.320310
0.330080
0.339840
0.349610
0.359380
0.365230
0.375000
0.384770
0.394530
0.410160
0.419920
0.425780
0.419920
0.425780
0.419920
0.416020
0.410160
0.394530
0.384770
0.371090
0.365230
0.359380
0.359380
0.359380
0.365230
0.365230
0.365230
0.365230
0.365230
0.365230
0.365230
0.380860
0.400390
0.410160
0.435550
0.435550
0.416020
0.404300
0.394530
0.394530
0.384770
0.371090
0.339840
0.330080
0.324220
0.324220
0.324220
0.330080
0.324220
0.335940
0.371090
0.419920
0.455080
0.625000
0.714840
0.619140
0.380860
0.345700
0.339840
0.339840
0.330080
0.330080
0.330080
0.324220
0.330080
0.335940
0.335940
0.339840
0.339840
0.355470
0.365230
0.371090
0.380860
0.390620
0.394530
0.410160
0.419920
0.435550
0.435550
0.435550
0.445310
0.445310
0.449220
0.435550
0.429690
0.416020
0.404300
0.390620
0.380860
0.371090
0.371090
0.365230
0.371090
0.375000
0.371090
0.380860
0.371090
0.371090
0.371090
0.384770
0.404300
0.416020
0.435550
0.439450
0.416020
0.404300
0.394530
0.394530
0.380860
0.371090
0.349610
0.335940
0.324220
0.324220
0.330080
0.330080
0.330080
0.339840
0.375000
0.416020
0.445310
0.595700
0.689450
0.625000
0.394530
0.330080
0.324220
0.330080
0.324220
0.320310
0.320310
0.324220
0.320310
0.324220
0.330080
0.335940
0.335940
0.345700
0.355470
0.365230
0.371090
0.380860
0.394530
0.410160
0.419920
0.435550
0.435550
0.445310
0.439450
0.445310
0.439450
0.435550
0.425780
0.416020
0.400390
0.390620
0.380860
0.371090
0.365230
0.365230
0.371090
0.375000
0.375000
0.380860
0.380860
0.384770
0.384770
0.390620
0.400390
0.416020
0.435550
0.439450
0.416020
0.400390
0.390620
0.390620
0.375000
0.359380
0.339840
0.320310
0.320310
0.320310
0.320310
0.320310
0.320310
0.330080
0.359380
0.400390
0.435550
0.539060
0.675780
0.689450
0.455080
0.345700
0.345700
0.349610
0.355470
0.345700
0.339840
0.339840
0.349610
0.349610
0.345700
0.349610
0.355470
0.365230
0.365230
0.365230
0.375000
0.390620
0.394530
0.410160
0.419920
0.435550
0.445310
0.449220
0.455080
0.455080
0.460940
0.445310
0.439450
0.429690
0.416020
0.400390
0.390620
0.390620
0.384770
0.380860
0.380860
0.384770
0.384770
0.384770
0.384770
0.384770
0.384770
0.384770
0.394530
0.416020
0.429690
0.455080
0.445310
0.435550
0.416020
0.416020
0.416020
0.400390
0.380860
0.359380
0.349610
0.345700
0.339840
0.349610
0.345700
0.345700
0.359380
0.400390
0.439450
0.490230
0.664060
0.730470
0.580080
0.375000
0.349610
0.339840
0.339840
0.335940
0.324220
0.324220
0.330080
0.320310
0.324220
0.330080
0.330080
0.339840
0.349610
0.359380
0.365230
0.371090
0.384770
0.390620
0.394530
0.410160
0.419920
0.429690
0.435550
0.435550
0.435550
0.435550
0.425780
0.416020
0.400390
0.390620
0.380860
0.371090
0.365230
0.365230
0.365230
0.365230
0.371090
0.375000
0.380860
0.384770
0.384770
0.384770
0.390620
0.404300
0.416020
0.435550
0.439450
0.429690
0.410160
0.394530
0.400390
0.390620
0.371090
0.345700
0.330080
0.324220
0.320310
0.320310
0.320310
0.320310
0.324220
0.371090
0.419920
0.460940
0.609380
0.730470
0.740230
0.425780
0.349610
0.330080
0.320310
0.314450
0.310550
0.310550
0.310550
0.314450
0.320310
0.320310
0.320310
0.324220
0.335940
0.345700
0.355470
0.355470
0.365230
0.375000
0.380860
0.394530
0.410160
0.416020
0.425780
0.435550
0.429690
0.425780
0.416020
0.410160
0.400390
0.390620
0.380860
0.375000
0.371090
0.365230
0.365230
0.365230
0.365230
0.365230
0.365230
0.365230
0.365230
0.371090
0.375000
0.394530
0.410160
0.425780
0.435550
0.425780
0.416020
0.394530
0.394530
0.390620
0.375000
0.349610
0.339840
0.330080
0.324220
0.320310
0.320310
0.320310
0.324220
0.345700
0.394530
0.435550
0.509770
0.675780
0.708980
0.500000
0.339840
0.324220
0.314450
0.320310
0.314450
0.304690
0.300780
0.310550
0.320310
0.320310
0.320310
0.320310
0.330080
0.345700
0.355470
0.365230
0.371090
0.384770
0.390620
0.400390
0.416020
0.419920
0.435550
0.425780
0.429690
0.435550
0.435550
0.435550
0.419920
0.416020
0.404300
0.390620
0.380860
0.365230
0.365230
0.375000
0.375000
0.365230
0.371090
0.384770
0.390620
0.390620
0.390620
0.404300
0.419920
0.435550
0.460940
0.449220
0.435550
0.425780
0.419920
0.429690
0.416020
0.400390
0.375000
0.365230
0.349610
0.349610
0.349610
0.359380
0.355470
0.371090
0.410160
0.449220
0.484380
0.654300
0.724610
0.615230
0.394530
0.359380
0.359380
0.359380
0.349610
0.345700
0.339840
0.339840
0.345700
0.349610
0.339840
0.349610
0.359380
0.365230
0.380860
0.390620
0.400390
0.416020
0.425780
0.435550
0.439450
0.445310
0.460940
0.460940
0.460940
0.460940
0.455080
0.439450
0.435550
0.419920
0.410160
0.394530
0.390620
0.380860
0.375000
0.375000
0.380860
0.384770
0.375000
0.384770
0.384770
0.384770
0.384770
0.390620
0.404300
0.419920
0.439450
0.449220
0.429690
0.404300
0.400390
0.400390
0.390620
0.375000
0.359380
0.345700
0.335940
0.330080
0.335940
0.330080
0.324220
0.330080
0.365230
0.404300
0.439450
0.570310
0.675780
0.685550
0.410160
0.330080
0.335940
0.339840
0.339840
0.330080
0.330080
0.330080
0.335940
0.320310
0.320310
0.335940
0.339840
0.349610
0.359380
0.365230
0.380860
0.390620
0.390620
0.404300
0.419920
0.425780
0.435550
0.445310
0.449220
0.449220
0.439450
0.435550
0.429690
0.416020
0.394530
0.380860
0.375000
0.371090
0.365230
0.359380
0.365230
0.365230
0.375000
0.375000
0.375000
0.375000
0.375000
0.375000
0.390620
0.404300
0.425780
0.439450
0.435550
0.419920
0.404300
0.400390
0.404300
0.384770
0.365230
0.349610
0.339840
0.339840
0.335940
0.339840
0.335940
0.339840
0.355470
0.384770
0.429690
0.505860
0.654300
0.689450
0.500000
0.339840
0.330080
0.335940
0.339840
0.330080
0.324220
0.320310
0.324220
0.324220
0.335940
0.339840
0.339840
0.345700
0.359380
0.365230
0.375000
0.384770
0.390620
0.410160
0.419920
0.429690
0.445310
0.449220
0.449220
0.449220
0.455080
0.449220
0.439450
0.425780
0.416020
0.394530
0.390620
0.384770
0.375000
0.371090
0.371090
0.375000
0.380860
0.375000
0.380860
0.380860
0.380860
0.384770
0.390620
0.404300
0.419920
0.445310
0.455080
0.435550
0.416020
0.410160
0.404300
0.394530
0.384770
0.365230
0.345700
0.345700
0.345700
0.349610
0.345700
0.349610
0.359380
0.394530
0.439450
0.470700
0.619140
0.720700
0.640620
0.410160
0.349610
0.345700
0.339840
0.335940
0.330080
0.335940
0.335940
0.335940
0.339840
0.339840
0.345700
0.349610
0.359380
0.365230
0.365230
0.375000
0.390620
0.400390
0.410160
0.416020
0.429690
0.435550
0.439450
0.449220
0.445310
0.439450
0.435550
0.435550
0.419920
0.404300
0.390620
0.384770
0.375000
0.375000
0.380860
0.371090
0.375000
0.371090
0.375000
0.375000
0.380860
0.384770
0.390620
0.404300
0.416020
0.429690
0.455080
0.439450
0.435550
0.416020
0.410160
0.400390
0.390620
0.365230
0.349610
0.339840
0.335940
0.324220
0.330080
0.330080
0.324220
0.349610
0.400390
0.445310
0.529300
0.695310
0.734380
0.519530
0.355470
0.335940
0.324220
0.320310
0.320310
0.320310
0.314450
0.320310
0.320310
0.320310
0.320310
0.330080
0.335940
0.339840
0.345700
0.359380
0.365230
0.365230
0.375000
0.390620
0.400390
0.410160
0.416020
0.425780
0.429690
0.419920
0.429690
0.416020
0.404300
0.390620
0.380860
0.365230
0.359380
0.359380
0.359380
0.355470
0.359380
0.355470
0.349610
0.365230
0.365230
0.365230
0.371090
0.380860
0.400390
0.416020
0.435550
0.425780
0.416020
0.394530
0.390620
0.390620
0.371090
0.359380
0.339840
0.330080
0.320310
0.320310
0.320310
0.324220
0.324220
0.335940
0.380860
0.429690
0.474610
0.644530
0.708980
0.589840
0.365230
0.339840
0.335940
0.324220
0.320310
0.320310
0.314450
0.314450
0.320310
0.320310
0.330080
0.330080
0.339840
0.339840
0.349610
0.359380
0.375000
0.384770
0.390620
0.404300
0.419920
0.429690
0.435550
0.435550
0.445310
0.445310
0.445310
0.439450
0.429690
0.416020
0.404300
0.394530
0.390620
0.380860
0.375000
0.380860
0.380860
0.384770
0.384770
0.384770
0.390620
0.390620
0.390620
0.394530
0.416020
0.429690
0.449220
0.445310
0.435550
0.425780
0.416020
0.416020
0.404300
0.390620
0.365230
0.345700
0.339840
0.335940
0.330080
0.330080
0.335940
0.330080
0.371090
0.410160
0.439450
0.580080
0.679690
0.689450
0.416020
0.335940
0.339840
0.335940
0.339840
0.324220
0.324220
0.324220
0.330080
0.330080
0.339840
0.345700
0.359380
0.371090
0.384770
0.390620
0.404300
0.416020
0.425780
0.435550
0.445310
0.455080
0.460940
0.464840
0.464840
0.464840
0.460940
0.460940
0.449220
0.439450
0.419920
0.416020
0.400390
0.400390
0.394530
0.390620
0.390620
0.390620
0.394530
0.394530
0.400390
0.394530
0.394530
0.400390
0.416020
0.425780
0.439450
0.460940
0.455080
0.445310
0.435550
0.429690
0.435550
0.410160
0.390620
0.365230
0.355470
0.359380
0.359380
0.359380
0.359380
0.359380
0.380860
0.419920
0.455080
0.515620
0.675780
0.724610
0.550780
0.371090
0.359380
0.359380
0.355470
0.355470
0.349610
0.345700
0.349610
0.349610
0.355470
0.359380
0.359380
0.371090
0.375000
0.384770
0.390620
0.404300
0.416020
0.419920
0.425780
0.439450
0.449220
0.460940
0.464840
0.464840
0.460940
0.460940
0.455080
0.439450
0.425780
0.410160
0.394530
0.390620
0.390620
0.390620
0.390620
0.390620
0.390620
0.390620
0.394530
0.390620
0.390620
0.394530
0.400390
0.416020
0.435550
0.460940
0.470700
0.445310
0.425780
0.416020
0.416020
0.400390
0.384770
0.365230
0.345700
0.339840
0.339840
0.339840
0.339840
0.339840
0.345700
0.384770
0.425780
0.464840
0.619140
0.730470
0.734380
0.419920
0.345700
0.335940
0.330080
0.320310
0.320310
0.320310
0.320310
0.320310
0.324220
0.324220
0.330080
0.335940
0.339840
0.349610
0.365230
0.365230
0.371090
0.384770
0.394530
0.410160
0.416020
0.429690
0.435550
0.445310
0.449220
0.439450
0.435550
0.425780
0.416020
0.400390
0.384770
0.380860
0.375000
0.371090
0.371090
0.371090
0.371090
0.375000
0.375000
0.380860
0.380860
0.380860
0.384770
0.400390
0.416020
0.429690
0.439450
0.429690
0.416020
0.404300
0.400390
0.390620
0.380860
0.355470
0.339840
0.335940
0.330080
0.324220
0.324220
0.330080
0.335940
0.355470
0.404300
0.449220
0.519530
0.679690
0.708980
0.519530
0.355470
0.335940
0.324220
0.324220
0.324220
0.320310
0.314450
0.320310
0.320310
0.314450
0.320310
0.320310
0.330080
0.345700
0.355470
0.365230
0.375000
0.384770
0.390620
0.404300
0.419920
0.419920
0.419920
0.425780
0.419920
0.435550
0.435550
0.425780
0.416020
0.404300
0.394530
0.384770
0.384770
0.380860
0.371090
0.371090
0.375000
0.371090
0.380860
0.380860
0.390620
0.375000
0.380860
0.394530
0.416020
0.416020
0.435550
0.439450
0.429690
0.410160
0.400390
0.394530
0.390620
0.365230
0.349610
0.339840
0.335940
0.324220
0.324220
0.330080
0.339840
0.349610
0.384770
0.425780
0.455080
0.625000
0.708980
0.634770
0.400390
0.349610
0.345700
0.339840
0.339840
0.330080
0.320310
0.320310
0.330080
0.339840
0.339840
0.339840
0.335940
0.349610
0.359380
0.365230
0.380860
0.390620
0.410160
0.419920
0.425780
0.425780
0.435550
0.449220
0.449220
0.449220
0.449220
0.455080
0.455080
0.445310
0.435550
0.425780
0.416020
0.416020
0.416020
0.410160
0.404300
0.410160
0.410160
0.416020
0.416020
0.416020
0.404300
0.410160
0.419920
0.429690
0.445310
0.460940
0.439450
0.419920
0.394530
0.390620
0.380860
0.365230
0.339840
0.324220
0.320310
0.314450
0.320310
0.324220
0.320310
0.310550
0.355470
0.400390
0.439450
0.529300
0.679690
0.699220
0.474610
0.349610
0.349610
0.349610
0.345700
0.339840
0.339840
0.339840
0.339840
0.339840
0.339840
0.339840
0.339840
0.345700
0.355470
0.365230
0.380860
0.394530
0.410160
0.416020
0.435550
0.435550
0.439450
0.455080
0.445310
0.429690
0.445310
0.460940
0.439450
0.416020
0.416020
0.425780
0.410160
0.400390
0.400390
0.394530
0.390620
0.390620
0.390620
0.390620
0.394530
0.390620
0.384770
0.390620
0.394530
0.410160
0.419920
0.439450
0.435550
0.419920
0.410160
0.400390
0.404300
0.390620
0.375000
0.355470
0.339840
0.339840
0.345700
0.345700
0.339840
0.339840
0.359380
0.394530
0.439450
0.474610
0.634770
0.689450
0.574220
0.365230
0.339840
0.339840
0.339840
0.345700
0.335940
0.330080
0.330080
0.335940
0.324220
0.330080
0.335940
0.339840
0.345700
0.359380
0.365230
0.390620
0.394530
0.416020
0.425780
0.435550
0.445310
0.455080
0.449220
0.455080
0.455080
0.455080
0.449220
0.445310
0.435550
0.419920
0.404300
0.394530
0.390620
0.390620
0.390620
0.390620
0.390620
0.390620
0.390620
0.390620
0.390620
0.390620
0.394530
0.416020
0.416020
0.429690
0.435550
0.429690
0.416020
0.400390
0.404300
0.410160
0.390620
0.375000
0.355470
0.345700
0.345700
0.345700
0.349610
0.349610
0.345700
0.384770
0.425780
0.460940
0.570310
0.689450
0.705080
0.455080
0.349610
0.349610
0.349610
0.349610
0.339840
0.339840
0.339840
0.339840
0.335940
0.339840
0.339840
0.339840
0.355470
0.365230
0.375000
0.384770
0.394530
0.410160
0.419920
0.425780
0.435550
0.445310
0.455080
0.455080
0.455080
0.460940
0.455080
0.445310
0.435550
0.425780
0.410160
0.394530
0.394530
0.390620
0.390620
0.390620
0.390620
0.390620
0.390620
0.394530
0.394530
0.394530
0.394530
0.404300
0.416020
0.429690
0.455080
0.460940
0.435550
0.419920
0.410160
0.410160
0.390620
0.375000
0.355470
0.339840
0.330080
0.330080
0.330080
0.330080
0.330080
0.339840
0.384770
0.429690
0.470700
0.644530
0.734380
0.640620
0.394530
0.349610
0.339840
0.320310
0.320310
0.304690
0.294920
0.294920
0.304690
0.310550
0.314450
0.320310
0.324220
0.339840
0.345700
0.355470
0.365230
0.375000
0.384770
0.394530
0.410160
0.425780
0.435550
0.435550
0.435550
0.435550
0.435550
0.429690
0.419920
0.416020
0.400390
0.394530
0.380860
0.375000
0.365230
0.365230
0.365230
0.365230
0.365230
0.365230
0.365230
0.371090
0.380860
0.384770
0.400390
0.416020
0.439450
0.449220
0.435550
0.419920
0.404300
0.394530
0.384770
0.371090
0.355470
0.335940
0.330080
0.320310
0.314450
0.320310
0.314450
0.320310
0.349610
0.400390
0.445310
0.544920
0.679690
0.708980
0.455080
0.339840
0.330080
0.330080
0.324220
0.320310
0.320310
0.320310
0.320310
0.320310
0.320310
0.324220
0.324220
0.339840
0.345700
0.359380
0.371090
0.384770
0.394530
0.410160
0.425780
0.429690
0.435550
0.435550
0.439450
0.435550
0.435550
0.429690
0.429690
0.425780
0.410160
0.400390
0.390620
0.390620
0.380860
0.380860
0.380860
0.375000
0.380860
0.375000
0.375000
0.380860
0.380860
0.390620
0.400390
0.416020
0.425780
0.445310
0.439450
0.429690
0.416020
0.404300
0.400390
0.384770
0.365230
0.339840
0.330080
0.330080
0.324220
0.330080
0.324220
0.339840
0.345700
0.390620
0.429690
0.464840
0.634770
0.679690
0.564450
0.365230
0.345700
0.339840
0.339840
0.330080
0.324220
0.330080
0.330080
0.320310
0.320310
0.324220
0.335940
0.339840
0.349610
0.359380
0.371090
0.375000
0.390620
0.400390
0.419920
0.435550
0.435550
0.435550
0.445310
0.455080
0.460940
0.460940
0.455080
0.449220
0.435550
0.419920
0.416020
0.404300
0.394530
0.394530
0.394530
0.390620
0.384770
0.390620
0.394530
0.390620
0.384770
0.394530
0.404300
0.429690
0.435550
0.455080
0.460940
0.445310
0.425780
0.419920
0.419920
0.404300
0.390620
0.371090
0.359380
0.349610
0.345700
0.339840
0.349610
0.349610
0.355470
0.380860
0.425780
0.455080
0.580080
0.679690
0.689450
0.435550
0.349610
0.355470
0.365230
0.365230
0.359380
0.349610
0.349610
0.355470
0.359380
0.365230
0.371090
0.375000
0.371090
0.371090
0.384770
0.394530
0.410160
0.425780
0.435550
0.455080
0.460940
0.470700
0.470700
0.474610
0.474610
0.470700
0.460940
0.455080
0.435550
0.425780
0.416020
0.410160
0.400390
0.404300
0.416020
0.416020
0.410160
0.410160
0.416020
0.419920
0.416020
0.400390
0.384770
0.359380
0.355470
0.349610
0.349610
0.345700
0.355470
0.359380
0.410160
0.455080
0.525390
0.705080
0.734380
0.574220
0.371090
0.345700
0.345700
0.339840
0.335940
0.330080
0.324220
0.330080
0.330080
0.339840
0.339840
0.355470
0.355470
0.365230
0.375000
0.384770
0.390620
0.410160
0.419920
0.435550
0.449220
0.455080
0.460940
0.460940
0.455080
0.449220
0.435550
0.435550
0.419920
0.416020
0.400390
0.390620
0.375000
0.375000
0.371090
0.365230
0.365230
0.365230
0.365230
0.365230
0.365230
0.359380
0.359380
0.359380
0.355470
0.355470
0.359380
0.365230
0.365230
0.365230
0.371090
0.371090
0.380860
0.390620
0.416020
0.419920
0.449220
0.439450
0.429690
0.416020
0.404300
0.394530
0.384770
0.365230
0.345700
0.335940
0.330080
0.324220
0.320310
0.324220
0.324220
0.355470
0.404300
0.445310
0.519530
0.669920
0.705080
0.529300
0.371090
0.365230
0.365230
0.365230
0.359380
0.355470
0.355470
0.355470
0.355470
0.355470
0.365230
0.359380
0.365230
0.371090
0.390620
0.390620
0.400390
0.404300
0.419920
0.425780
0.435550
0.435550
0.445310
0.455080
0.449220
0.455080
0.449220
0.455080
0.439450
0.429690
0.416020
0.394530
0.384770
0.380860
0.371090
0.380860
0.375000
0.380860
0.375000
0.375000
0.375000
0.375000
0.371090
0.384770
0.394530
0.410160
0.416020
0.449220
0.455080
0.435550
0.425780
0.416020
0.410160
0.394530
0.380860
0.355470
0.339840
0.339840
0.335940
0.335940
0.339840
0.335940
0.345700
0.394530
0.439450
0.474610
0.640620
0.714840
0.615230
0.380860
0.345700
0.339840
0.339840
0.335940
0.330080
0.324220
0.330080
0.330080
0.339840
0.335940
0.335940
0.335940
0.339840
0.349610
0.355470
0.365230
0.371090
0.390620
0.394530
0.416020
0.429690
0.439450
0.435550
0.439450
0.439450
0.439450
0.429690
0.419920
0.400390
0.394530
0.380860
0.365230
0.365230
0.359380
0.359380
0.359380
0.349610
0.349610
0.355470
0.349610
0.359380
0.349610
0.359380
0.375000
0.394530
0.416020
0.435550
0.416020
0.404300
0.384770
0.380860
0.371090
0.365230
0.339840
0.324220
0.314450
0.310550
0.304690
0.304690
0.300780
0.304690
0.335940
0.380860
0.416020
0.490230
0.634770
0.664060
0.449220
0.300780
0.304690
0.294920
0.304690
0.294920
0.300780
0.294920
0.300780
0.304690
0.320310
0.324220
0.330080
0.339840
0.355470
0.365230
0.375000
0.390620
0.404300
0.416020
0.419920
0.435550
0.439450
0.449220
0.445310
0.445310
0.439450
0.445310
0.435550
0.419920
0.400390
0.390620
0.380860
0.375000
0.365230
0.365230
0.359380
0.355470
0.355470
0.349610
0.359380
0.365230
0.365230
0.365230
0.380860
0.394530
0.410160
0.429690
0.435550
0.410160
0.394530
0.390620
0.390620
0.375000
0.365230
0.339840
0.335940
0.320310
0.324220
0.324220
0.330080
0.335940
0.349610
0.394530
0.439450
0.464840
0.619140
0.685550
0.583980
0.375000
0.339840
0.339840
0.339840
0.339840
0.339840
0.339840
0.335940
0.339840
0.339840
0.349610
0.355470
0.349610
0.359380
0.365230
0.375000
0.390620
0.394530
0.416020
0.425780
0.439450
0.449220
0.460940
0.460940
0.464840
0.464840
0.460940
0.455080
0.439450
0.425780
0.416020
0.404300
0.390620
0.384770
0.380860
0.380860
0.380860
0.380860
0.375000
0.371090
0.380860
0.384770
0.390620
0.390620
0.416020
0.429690
0.435550
0.449220
0.455080
0.429690
0.410160
0.404300
0.394530
0.384770
0.365230
0.349610
0.339840
0.339840
0.339840
0.345700
0.345700
0.345700
0.390620
0.429690
0.464840
0.574220
0.679690
0.689450
0.449220
0.345700
0.355470
0.359380
0.349610
0.339840
0.335940
0.330080
0.339840
0.345700
0.349610
0.359380
0.359380
0.355470
0.371090
0.380860
0.384770
0.394530
0.410160
0.419920
0.429690
0.435550
0.449220
0.460940
0.455080
0.445310
0.445310
0.449220
0.439450
0.429690
0.416020
0.400390
0.390620
0.384770
0.380860
0.375000
0.375000
0.375000
0.384770
0.380860
0.384770
0.380860
0.380860
0.384770
0.400390
0.416020
0.429690
0.435550
0.429690
0.416020
0.410160
0.404300
0.410160
0.384770
0.359380
0.335940
0.330080
0.320310
0.320310
0.320310
0.320310
0.324220
0.345700
0.394530
0.425780
0.480470
0.619140
0.644530
0.460940
0.314450
0.310550
0.314450
0.314450
0.314450
0.320310
0.320310
0.320310
0.330080
0.335940
0.339840
0.339840
0.349610
0.365230
0.371090
0.384770
0.390620
0.410160
0.419920
0.439450
0.449220
0.460940
0.470700
0.474610
0.470700
0.470700
0.460940
0.460940
0.439450
0.429690
0.410160
0.394530
0.390620
0.384770
0.380860
0.380860
0.380860
0.375000
0.380860
0.380860
0.380860
0.380860
0.384770
0.390620
0.410160
0.419920
0.439450
0.435550
0.419920
0.404300
0.400390
0.404300
0.390620
0.365230
0.349610
0.339840
0.330080
0.324220
0.330080
0.335940
0.330080
0.345700
0.394530
0.429690
0.470700
0.628910
0.669920
0.554690
0.355470
0.339840
0.339840
0.339840
0.339840
0.339840
0.335940
0.339840
0.339840
0.345700
0.345700
0.349610
0.359380
0.365230
0.365230
0.375000
0.380860
0.394530
0.410160
0.419920
0.435550
0.439450
0.445310
0.449220
0.460940
0.460940
0.455080
0.449220
0.439450
0.419920
0.410160
0.390620
0.384770
0.375000
0.375000
0.380860
0.380860
0.375000
0.380860
0.380860
0.380860
0.375000
0.380860
0.390620
0.404300
0.416020
0.439450
0.455080
0.435550
0.416020
0.394530
0.390620
0.384770
0.371090
0.349610
0.335940
0.324220
0.324220
0.324220
0.335940
0.324220
0.335940
0.371090
0.416020
0.455080
0.583980
0.685550
0.689450
0.390620
0.320310
0.320310
0.314450
0.320310
0.314450
0.314450
0.314450
0.320310
0.314450
0.320310
0.320310
0.324220
0.335940
0.345700
0.345700
0.355470
0.365230
0.380860
0.390620
0.400390
0.410160
0.416020
0.419920
0.425780
0.429690
0.435550
0.435550
0.425780
0.416020
0.394530
0.384770
0.375000
0.371090
0.365230
0.365230
0.359380
0.365230
0.365230
0.359380
0.359380
0.359380
0.359380
0.371090
0.380860
0.394530
0.416020
0.425780
0.410160
0.394530
0.375000
0.371090
0.359380
0.349610
0.330080
0.314450
0.304690
0.300780
0.300780
0.300780
0.304690
0.304690
0.339840
0.394530
0.435550
0.519530
0.650390
0.669920
0.449220
0.324220
0.335940
0.330080
0.330080
0.324220
0.324220
0.324220
0.320310
0.330080
0.339840
0.339840
0.339840
0.349610
0.359380
0.365230
0.371090
0.380860
0.390620
0.410160
0.416020
0.425780
0.435550
0.445310
0.439450
0.445310
0.439450
0.439450
0.435550
0.425780
0.410160
0.400390
0.384770
0.380860
0.375000
0.365230
0.365230
0.371090
0.371090
0.375000
0.371090
0.371090
0.375000
0.371090
0.400390
0.416020
0.429690
0.439450
0.435550
0.410160
0.394530
0.390620
0.390620
0.380860
0.365230
0.345700
0.339840
0.335940
0.330080
0.330080
0.339840
0.339840
0.359380
0.410160
0.449220
0.500000
0.640620
0.669920
0.494140
0.335940
0.330080
0.330080
0.335940
0.320310
0.320310
0.324220
0.320310
0.324220
0.335940
0.339840
0.335940
0.339840
0.349610
0.365230
0.371090
0.384770
0.400390
0.416020
0.429690
0.435550
0.449220
0.455080
0.460940
0.460940
0.460940
0.460940
0.449220
0.429690
0.416020
0.404300
0.394530
0.390620
0.371090
0.365230
0.365230
0.365230
0.365230
0.365230
0.365230
0.365230
0.359380
0.359380
0.375000
0.394530
0.400390
0.416020
0.416020
0.404300
0.390620
0.384770
0.375000
0.359380
0.345700
0.335940
0.320310
0.320310
0.320310
0.324220
0.324220
0.335940
0.355470
0.400390
0.445310
0.484380
0.634770
0.669920
0.525390
0.355470
0.339840
0.355470
0.349610
0.345700
0.345700
0.345700
0.349610
0.349610
0.349610
0.365230
0.365230
0.365230
0.380860
0.384770
0.390620
0.400390
0.410160
0.416020
0.429690
0.435550
0.445310
0.460940
0.460940
0.449220
0.439450
0.445310
0.439450
0.429690
0.416020
0.394530
0.380860
0.371090
0.365230
0.365230
0.359380
0.359380
0.355470
0.359380
0.365230
0.371090
0.365230
0.375000
0.390620
0.410160
0.416020
0.435550
0.429690
0.416020
0.410160
0.400390
0.404300
0.375000
0.359380
0.339840
0.335940
0.330080
0.324220
0.330080
0.335940
0.330080
0.349610
0.394530
0.439450
0.474610
0.628910
0.654300
0.525390
0.339840
0.324220
0.335940
0.339840
0.335940
0.330080
0.324220
0.330080
0.335940
0.339840
0.345700
0.345700
0.359380
0.365230
0.371090
0.380860
0.394530
0.404300
0.419920
0.435550
0.460940
0.464840
0.484380
0.480470
0.474610
0.470700
0.464840
0.449220
0.435550
0.425780
0.416020
0.394530
0.384770
0.380860
0.371090
0.365230
0.365230
0.365230
0.359380
0.365230
0.365230
0.365230
0.371090
0.384770
0.400390
0.419920
0.435550
0.425780
0.416020
0.400390
0.390620
0.390620
0.375000
0.365230
0.349610
0.339840
0.339840
0.330080
0.339840
0.335940
0.339840
0.359380
0.410160
0.445310
0.490230
0.634770
0.675780
0.539060
0.359380
0.345700
0.345700
0.339840
0.339840
0.339840
0.339840
0.335940
0.339840
0.339840
0.345700
0.355470
0.355470
0.365230
0.380860
0.390620
0.394530
0.410160
0.419920
0.435550
0.445310
0.460940
0.464840
0.470700
0.464840
0.464840
0.460940
0.455080
0.439450
0.429690
0.416020
0.404300
0.390620
0.390620
0.390620
0.390620
0.384770
0.384770
0.384770
0.384770
0.390620
0.390620
0.390620
0.400390
0.416020
0.429690
0.460940
0.445310
0.435550
0.419920
0.410160
0.404300
0.390620
0.375000
0.355470
0.339840
0.339840
0.330080
0.339840
0.339840
0.339840
0.355470
0.404300
0.445310
0.480470
0.634770
0.695310
0.580080
0.371090
0.345700
0.335940
0.330080
0.330080
0.324220
0.320310
0.320310
0.320310
0.330080
0.335940
0.339840
0.349610
0.359380
0.365230
0.371090
0.384770
0.394530
0.404300
0.416020
0.435550
0.445310
0.455080
0.455080
0.460940
0.455080
0.449220
0.445310
0.435550
0.419920
0.416020
0.394530
0.390620
0.380860
0.375000
0.365230
0.365230
0.365230
0.365230
0.365230
0.365230
0.371090
0.371090
0.390620
0.410160
0.425780
0.435550
0.435550
0.419920
0.404300
0.394530
0.394530
0.375000
0.359380
0.339840
0.324220
0.320310
0.314450
0.320310
0.320310
0.320310
0.335940
0.380860
0.429690
0.455080
0.605470
0.660160
0.560550
0.349610
0.320310
0.314450
0.320310
0.320310
0.314450
0.314450
0.320310
0.320310
0.320310
0.320310
0.324220
0.335940
0.339840
0.345700
0.359380
0.371090
0.380860
0.394530
0.404300
0.419920
0.429690
0.435550
0.439450
0.445310
0.439450
0.439450
0.435550
0.419920
0.416020
0.394530
0.384770
0.375000
0.365230
0.365230
0.365230
0.355470
0.359380
0.359380
0.365230
0.355470
0.359380
0.365230
0.375000
0.394530
0.416020
0.435550
0.429690
0.419920
0.410160
0.400390
0.404300
0.384770
0.365230
0.345700
0.335940
0.324220
0.324220
0.330080
0.330080
0.339840
0.349610
0.394530
0.429690
0.455080
0.595700
0.650390
0.554690
0.355470
0.324220
0.320310
0.320310
0.320310
0.310550
0.310550
0.314450
0.310550
0.320310
0.320310
0.324220
0.339840
0.349610
0.359380
0.365230
0.380860
0.394530
0.410160
0.425780
0.439450
0.455080
0.460940
0.474610
0.470700
0.470700
0.464840
0.460940
0.439450
0.429690
0.416020
0.404300
0.390620
0.384770
0.375000
0.375000
0.375000
0.375000
0.375000
0.375000
0.384770
0.384770
0.390620
0.404300
0.425780
0.429690
0.449220
0.445310
0.435550
0.416020
0.404300
0.410160
0.390620
0.371090
0.355470
0.339840
0.335940
0.335940
0.339840
0.339840
0.339840
0.355470
0.394530
0.449220
0.480470
0.625000
0.669920
0.554690
0.365230
0.349610
0.349610
0.355470
0.345700
0.345700
0.345700
0.345700
0.339840
0.349610
0.349610
0.355470
0.355470
0.365230
0.365230
0.375000
0.384770
0.394530
0.416020
0.429690
0.439450
0.455080
0.460940
0.460940
0.460940
0.455080
0.455080
0.449220
0.435550
0.419920
0.404300
0.390620
0.384770
0.375000
0.371090
0.365230
0.371090
0.371090
0.371090
0.371090
0.371090
0.371090
0.384770
0.400390
0.416020
0.429690
0.439450
0.435550
0.419920
0.416020
0.410160
0.400390
0.384770
0.365230
0.339840
0.330080
0.330080
0.330080
0.330080
0.324220
0.324220
0.349610
0.394530
0.435550
0.470700
0.609380
0.640620
0.494140
0.324220
0.320310
0.320310
0.330080
0.330080
0.324220
0.324220
0.330080
0.324220
0.330080
0.339840
0.339840
0.345700
0.339840
0.359380
0.371090
0.384770
0.390620
0.404300
0.416020
0.429690
0.439450
0.445310
0.455080
0.449220
0.439450
0.435550
0.429690
0.425780
0.410160
0.394530
0.390620
0.380860
0.371090
0.371090
0.375000
0.371090
0.371090
0.365230
0.375000
0.375000
0.380860
0.384770
0.400390
0.416020
0.439450
0.449220
0.435550
0.416020
0.404300
0.404300
0.400390
0.384770
0.359380
0.339840
0.335940
0.324220
0.320310
0.324220
0.330080
0.335940
0.365230
0.416020
0.455080
0.525390
0.640620
0.664060
0.460940
0.339840
0.335940
0.339840
0.339840
0.330080
0.330080
0.335940
0.339840
0.339840
0.339840
0.339840
0.355470
0.359380
0.365230
0.371090
0.384770
0.390620
0.404300
0.416020
0.429690
0.435550
0.449220
0.455080
0.460940
0.460940
0.449220
0.455080
0.449220
0.429690
0.416020
0.400390
0.384770
0.375000
0.371090
0.375000
0.365230
0.371090
0.365230
0.371090
0.365230
0.375000
0.375000
0.384770
0.400390
0.416020
0.435550
0.449220
0.435550
0.425780
0.400390
0.400390
0.390620
0.380860
0.365230
0.339840
0.324220
0.324220
0.330080
0.335940
0.324220
0.330080
0.371090
0.416020
0.449220
0.554690
0.660160
0.675780
0.429690
0.339840
0.330080
0.330080
0.330080
0.324220
0.324220
0.324220
0.320310
0.324220
0.335940
0.335940
0.339840
0.339840
0.355470
0.359380
0.365230
0.365230
0.375000
0.390620
0.404300
0.416020
0.429690
0.435550
0.435550
0.435550
0.435550
0.429690
0.419920
0.416020
0.404300
0.390620
0.375000
0.371090
0.359380
0.349610
0.345700
0.349610
0.355470
0.355470
0.355470
0.355470
0.355470
0.365230
0.384770
0.404300
0.425780
0.435550
0.416020
0.400390
0.390620
0.390620
0.380860
0.365230
0.339840
0.324220
0.320310
0.320310
0.324220
0.324220
0.324220
0.330080
0.380860
0.429690
0.460940
0.589840
0.669920
0.619140
0.390620
0.335940
0.330080
0.335940
0.324220
0.324220
0.324220
0.335940
0.335940
0.339840
0.339840
0.339840
0.345700
0.359380
0.365230
0.375000
0.380860
0.390620
0.400390
0.416020
0.425780
0.435550
0.439450
0.449220
0.460940
0.455080
0.449220
0.445310
0.435550
0.425780
0.410160
0.390620
0.390620
0.380860
0.375000
0.371090
0.375000
0.365230
0.371090
0.371090
0.371090
0.380860
0.390620
0.400390
0.419920
0.435550
0.455080
0.439450
0.435550
0.416020
0.404300
0.400390
0.380860
0.365230
0.349610
0.339840
0.335940
0.330080
0.330080
0.335940
0.330080
0.349610
0.394530
0.445310
0.464840
0.609380
0.664060
0.570310
0.355470
0.324220
0.320310
0.320310
0.324220
0.320310
0.314450
0.310550
0.320310
0.320310
0.320310
0.320310
0.330080
0.335940
0.339840
0.349610
0.365230
0.375000
0.390620
0.400390
0.416020
0.425780
0.435550
0.439450
0.439450
0.439450
0.439450
0.429690
0.425780
0.410160
0.394530
0.384770
0.371090
0.371090
0.371090
0.371090
0.365230
0.365230
0.365230
0.365230
0.371090
0.375000
0.380860
0.404300
0.416020
0.429690
0.449220
0.435550
0.425780
0.416020
0.416020
0.404300
0.384770
0.371090
0.349610
0.345700
0.335940
0.330080
0.335940
0.339840
0.335940
0.355470
0.400390
0.439450
0.480470
0.619140
0.660160
0.515620
0.349610
0.339840
0.339840
0.339840
0.339840
0.335940
0.335940
0.339840
0.345700
0.345700
0.345700
0.349610
0.359380
0.365230
0.371090
0.380860
0.390620
0.404300
0.416020
0.425780
0.435550
0.449220
0.455080
0.460940
0.460940
0.460940
0.449220
0.445310
0.435550
0.419920
0.404300
0.394530
0.390620
0.384770
0.375000
0.380860
0.371090
0.375000
0.380860
0.375000
0.380860
0.375000
0.384770
0.394530
0.416020
0.435550
0.449220
0.435550
0.419920
0.400390
0.394530
0.390620
0.384770
0.365230
0.349610
0.335940
0.324220
0.324220
0.330080
0.320310
0.330080
0.371090
0.425780
0.455080
0.544920
0.660160
0.679690
0.439450
0.335940
0.339840
0.330080
0.330080
0.324220
0.324220
0.320310
0.320310
0.330080
0.339840
0.339840
0.339840
0.349610
0.365230
0.365230
0.371090
0.380860
0.390620
0.400390
0.416020
0.425780
0.435550
0.435550
0.435550
0.429690
0.425780
0.419920
0.419920
0.404300
0.390620
0.375000
0.365230
0.359380
0.355470
0.355470
0.349610
0.359380
0.349610
0.355470
0.355470
0.359380
0.365230
0.371090
0.394530
0.410160
0.429690
0.435550
0.416020
0.394530
0.375000
0.375000
0.365230
0.345700
0.330080
0.314450
0.310550
0.304690
0.310550
0.310550
0.310550
0.314450
0.371090
0.410160
0.445310
0.580080
0.669920
0.605470
0.380860
0.324220
0.320310
0.320310
0.314450
0.320310
0.320310
0.320310
0.320310
0.324220
0.330080
0.339840
0.335940
0.339840
0.345700
0.359380
0.365230
0.380860
0.384770
0.400390
0.416020
0.429690
0.435550
0.439450
0.439450
0.445310
0.439450
0.435550
0.429690
0.416020
0.400390
0.390620
0.380860
0.365230
0.365230
0.359380
0.365230
0.359380
0.365230
0.365230
0.365230
0.365230
0.371090
0.384770
0.410160
0.416020
0.435550
0.419920
0.404300
0.390620
0.384770
0.375000
0.355470
0.335940
0.320310
0.304690
0.300780
0.300780
0.300780
0.304690
0.304690
0.324220
0.375000
0.425780
0.455080
0.615230
0.664060
0.550780
0.355470
0.339840
0.339840
0.345700
0.345700
0.345700
0.349610
0.355470
0.349610
0.355470
0.355470
0.359380
0.359380
0.365230
0.375000
0.380860
0.390620
0.394530
0.416020
0.419920
0.435550
0.439450
0.445310
0.439450
0.445310
0.435550
0.439450
0.435550
0.429690
0.416020
0.400390
0.384770
0.384770
0.380860
0.375000
0.375000
0.375000
0.380860
0.384770
0.384770
0.384770
0.390620
0.390620
0.416020
0.425780
0.445310
0.455080
0.435550
0.416020
0.416020
0.404300
0.410160
0.384770
0.365230
0.339840
0.335940
0.330080
0.335940
0.330080
0.335940
0.339840
0.375000
0.425780
0.460940
0.544920
0.660160
0.669920
0.455080
0.339840
0.339840
0.339840
0.339840
0.335940
0.324220
0.330080
0.330080
0.330080
0.330080
0.335940
0.335940
0.339840
0.345700
0.359380
0.365230
0.375000
0.390620
0.404300
0.416020
0.435550
0.439450
0.445310
0.455080
0.455080
0.449220
0.439450
0.435550
0.416020
0.404300
0.390620
0.384770
0.371090
0.375000
0.365230
0.359380
0.359380
0.359380
0.365230
0.365230
0.365230
0.371090
0.380860
0.394530
0.410160
0.435550
0.429690
0.410160
0.390620
0.390620
0.390620
0.375000
0.359380
0.345700
0.330080
0.324220
0.320310
0.320310
0.320310
0.320310
0.335940
0.375000
0.425780
0.449220
0.589840
0.644530
0.574220
0.355470
0.320310
0.320310
0.324220
0.320310
0.320310
0.320310
0.320310
0.324220
0.330080
0.330080
0.335940
0.339840
0.349610
0.355470
0.365230
0.380860
0.390620
0.400390
0.416020
0.429690
0.435550
0.455080
0.460940
0.460940
0.460940
0.455080
0.449220
0.435550
0.416020
0.404300
0.390620
0.375000
0.371090
0.365230
0.365230
0.365230
0.371090
0.365230
0.365230
0.365230
0.375000
0.375000
0.394530
0.410160
0.425780
0.435550
0.429690
0.416020
0.400390
0.390620
0.394530
0.375000
0.359380
0.339840
0.335940
0.324220
0.330080
0.330080
0.320310
0.324220
0.355470
0.410160
0.449220
0.500000
0.619140
0.644530
0.474610
0.335940
0.339840
0.330080
0.330080
0.335940
0.324220
0.320310
0.324220
0.330080
0.335940
0.339840
0.345700
0.349610
0.355470
0.365230
0.375000
0.384770
0.404300
0.416020
0.429690
0.445310
