0.605080
0.601170
0.596290
0.590420
0.583580
0.575760
0.567940
0.559140
0.551320
0.543500
0.534700
0.524930
0.516130
0.507330
0.498530
0.489740
0.481920
0.474100
0.466280
0.458460
0.452590
0.446730
0.440860
0.435000
0.429130
0.424240
0.418380
0.413490
0.409580
0.404690
0.400780
0.396870
0.393940
0.391980
0.390030
0.388070
0.385140
0.383190
0.380250
0.378300
0.375370
0.373410
0.371460
0.369500
0.368520
0.367550
0.367550
0.367550
0.367550
0.369500
0.373410
0.378300
0.386120
0.395890
0.407620
0.421310
0.435970
0.451610
0.465300
0.478980
0.493650
0.508310
0.522970
0.536660
0.549360
0.561090
0.571850
0.581620
0.589440
0.596290
0.602150
0.605080
0.608020
0.610950
0.611930
0.611930
0.610950
0.608990
0.606060
0.602150
0.597260
0.617790
0.651030
0.661780
0.660800
0.652980
0.641250
0.627570
0.612900
0.598240
0.582600
0.566960
0.551320
0.535680
0.521020
0.508310
0.496580
0.484850
0.472140
0.460410
0.449660
0.440860
0.431090
0.422290
0.413490
0.404690
0.396870
0.388070
0.382210
0.377320
0.371460
0.365590
0.360700
0.355820
0.351910
0.347020
0.342130
0.338220
0.334310
0.332360
0.330400
0.330400
0.329420
0.328450
0.327470
0.325510
0.325510
0.326490
0.329420
0.335290
0.344090
0.356790
0.370480
0.387100
0.406650
0.430110
0.456500
0.483870
0.511240
0.538610
0.565000
0.591400
0.615840
0.639300
0.659820
0.676440
0.689150
0.700880
0.711630
0.720430
0.727270
0.731180
0.734120
0.735090
0.735090
0.732160
0.728250
0.722390
0.715540
0.706740
0.695990
0.685240
0.672530
0.658850
0.644180
0.629520
0.614860
0.599220
0.584560
0.569890
0.556210
0.543500
0.529810
0.516130
0.501470
0.488760
0.475070
0.462370
0.450640
0.439880
0.430110
0.420330
0.412510
0.406650
0.399800
0.392960
0.385140
0.378300
0.372430
0.366570
0.360700
0.355820
0.351910
0.347020
0.344090
0.341150
0.339200
0.337240
0.334310
0.331380
0.328450
0.326490
0.324540
0.322580
0.322580
0.322580
0.323560
0.326490
0.331380
0.337240
0.347020
0.359730
0.376340
0.395890
0.418380
0.443790
0.471160
0.498530
0.525900
0.552300
0.574780
0.594330
0.613880
0.634410
0.652000
0.668620
0.683280
0.695990
0.707720
0.716520
0.723360
0.728250
0.730210
0.729230
0.726300
0.721410
0.715540
0.707720
0.696970
0.686220
0.674490
0.662760
0.650050
0.636360
0.622680
0.608990
0.596290
0.580650
0.565000
0.550340
0.534700
0.520040
0.506350
0.493650
0.479960
0.467250
0.455520
0.446730
0.437930
0.430110
0.421310
0.412510
0.404690
0.395890
0.388070
0.380250
0.372430
0.366570
0.361680
0.356790
0.352880
0.349950
0.347020
0.343110
0.340180
0.336270
0.333330
0.330400
0.327470
0.324540
0.321600
0.318670
0.317690
0.317690
0.316720
0.315740
0.316720
0.319650
0.324540
0.332360
0.343110
0.357770
0.375370
0.396870
0.420330
0.441840
0.463340
0.487780
0.512220
0.537630
0.562070
0.585530
0.608020
0.628540
0.646140
0.661780
0.675460
0.684260
0.691100
0.697950
0.702830
0.706740
0.707720
0.707720
0.704790
0.698920
0.692080
0.684260
0.674490
0.663730
0.652980
0.642230
0.629520
0.616810
0.603130
0.588470
0.574780
0.561090
0.546430
0.532750
0.518080
0.503420
0.491690
0.479960
0.468230
0.456500
0.444770
0.422290
0.394920
0.376340
0.361680
0.348970
0.338220
0.328450
0.320630
0.315740
0.309870
0.304990
0.299120
0.293260
0.287390
0.281520
0.275660
0.270770
0.265880
0.261970
0.260020
0.259040
0.259040
0.258060
0.257090
0.256110
0.254150
0.251220
0.249270
0.248290
0.248290
0.251220
0.256110
0.263930
0.272730
0.286410
0.303030
0.325510
0.350930
0.379280
0.409580
0.440860
0.471160
0.501470
0.530790
0.559140
0.580650
0.599220
0.616810
0.634410
0.650050
0.662760
0.673510
0.681330
0.686220
0.689150
0.689150
0.688170
0.685240
0.680350
0.674490
0.666670
0.657870
0.646140
0.633430
0.618770
0.604110
0.587490
0.570870
0.554250
0.536660
0.521020
0.506350
0.489740
0.472140
0.454550
0.437930
0.421310
0.405670
0.391010
0.376340
0.362660
0.349950
0.340180
0.331380
0.322580
0.313780
0.304990
0.295210
0.286410
0.277610
0.268820
0.261000
0.254150
0.246330
0.239490
0.234600
0.231670
0.227760
0.224830
0.221900
0.218960
0.216030
0.214080
0.211140
0.208210
0.205280
0.202350
0.200390
0.199410
0.198440
0.197460
0.197460
0.200390
0.207230
0.217010
0.230690
0.247310
0.268820
0.294230
0.321600
0.348000
0.372430
0.399800
0.428150
0.454550
0.480940
0.505380
0.528840
0.550340
0.568910
0.584560
0.598240
0.608020
0.615840
0.622680
0.627570
0.631480
0.632450
0.629520
0.624630
0.616810
0.607040
0.595310
0.581620
0.567940
0.555230
0.543500
0.528840
0.514170
0.498530
0.482890
0.466280
0.450640
0.435000
0.418380
0.401760
0.385140
0.372430
0.360700
0.348000
0.336270
0.324540
0.312810
0.302050
0.291300
0.280550
0.270770
0.261000
0.252200
0.244380
0.239490
0.234600
0.229720
0.223850
0.218960
0.215050
0.210170
0.206260
0.202350
0.199410
0.196480
0.193550
0.192570
0.191590
0.189640
0.186710
0.184750
0.182800
0.180840
0.179860
0.178890
0.178890
0.180840
0.183770
0.190620
0.199410
0.210170
0.225810
0.244380
0.265880
0.290320
0.317690
0.347020
0.377320
0.406650
0.435970
0.464320
0.487780
0.507330
0.526880
0.546430
0.565000
0.580650
0.594330
0.605080
0.613880
0.620720
0.624630
0.626590
0.626590
0.624630
0.620720
0.615840
0.608990
0.602150
0.592380
0.581620
0.568910
0.555230
0.540570
0.523950
0.507330
0.492670
0.479960
0.466280
0.451610
0.437930
0.424240
0.411530
0.399800
0.388070
0.378300
0.368520
0.360700
0.353860
0.348970
0.343110
0.337240
0.330400
0.324540
0.318670
0.314760
0.310850
0.307920
0.304990
0.302050
0.316720
0.342130
0.354840
0.360700
0.362660
0.363640
0.362660
0.361680
0.359730
0.357770
0.354840
0.352880
0.350930
0.349950
0.350930
0.352880
0.355820
0.361680
0.370480
0.383190
0.399800
0.420330
0.443790
0.471160
0.500490
0.529810
0.556210
0.579670
0.605080
0.631480
0.655910
0.679370
0.701860
0.721410
0.739000
0.753670
0.767350
0.779080
0.787880
0.792770
0.799610
0.804500
0.807430
0.808410
0.806450
0.801560
0.793740
0.783970
0.772240
0.759530
0.745850
0.733140
0.720430
0.705770
0.690130
0.674490
0.657870
0.641250
0.625610
0.608990
0.592380
0.574780
0.558160
0.544480
0.531770
0.519060
0.506350
0.494620
0.482890
0.473120
0.463340
0.454550
0.444770
0.435970
0.428150
0.421310
0.415440
0.411530
0.405670
0.399800
0.393940
0.388070
0.382210
0.378300
0.375370
0.371460
0.367550
0.363640
0.360700
0.358750
0.356790
0.353860
0.351910
0.349950
0.349950
0.351910
0.356790
0.365590
0.377320
0.392960
0.413490
0.434020
0.455520
0.480940
0.509290
0.538610
0.568910
0.599220
0.629520
0.657870
0.684260
0.709680
0.732160
0.748780
0.762460
0.776150
0.788860
0.801560
0.810360
0.817200
0.821110
0.823070
0.823070
0.820140
0.815250
0.809380
0.801560
0.791790
0.782010
0.770280
0.757580
0.744870
0.730210
0.714570
0.698920
0.681330
0.664710
0.648090
0.632450
0.617790
0.602150
0.585530
0.569890
0.554250
0.539590
0.525900
0.513200
0.501470
0.489740
0.479960
0.471160
0.463340
0.457480
0.450640
0.442820
0.435970
0.428150
0.421310
0.414470
0.407620
0.401760
0.394920
0.389050
0.384160
0.381230
0.378300
0.376340
0.373410
0.370480
0.368520
0.365590
0.362660
0.360700
0.358750
0.358750
0.359730
0.362660
0.368520
0.376340
0.389050
0.406650
0.427170
0.450640
0.478010
0.508310
0.538610
0.569890
0.600200
0.626590
0.649070
0.672530
0.695010
0.716520
0.735090
0.752690
0.768330
0.782010
0.793740
0.803520
0.811340
0.815250
0.816230
0.815250
0.812320
0.808410
0.801560
0.793740
0.782990
0.771260
0.758550
0.744870
0.730210
0.714570
0.700880
0.686220
0.670580
0.653960
0.637340
0.619750
0.603130
0.587490
0.571850
0.556210
0.541540
0.526880
0.515150
0.503420
0.492670
0.479960
0.468230
0.457480
0.446730
0.436950
0.429130
0.421310
0.414470
0.408600
0.402740
0.396870
0.392960
0.388070
0.383190
0.379280
0.375370
0.371460
0.367550
0.362660
0.357770
0.353860
0.349950
0.347020
0.345060
0.343110
0.341150
0.339200
0.338220
0.317690
0.289350
0.280550
0.283480
0.294230
0.311830
0.332360
0.354840
0.377320
0.403710
0.433040
0.463340
0.494620
0.523950
0.552300
0.579670
0.606060
0.629520
0.650050
0.664710
0.676440
0.687190
0.696970
0.704790
0.709680
0.713590
0.714570
0.712610
0.708700
0.703810
0.695990
0.686220
0.675460
0.664710
0.652980
0.638320
0.623660
0.608020
0.590420
0.572830
0.555230
0.537630
0.520040
0.503420
0.487780
0.475070
0.460410
0.445750
0.431090
0.417400
0.404690
0.391980
0.380250
0.368520
0.357770
0.348000
0.339200
0.332360
0.327470
0.321600
0.313780
0.306940
0.300100
0.294230
0.288370
0.283480
0.277610
0.272730
0.267840
0.263930
0.261970
0.259040
0.256110
0.253180
0.250240
0.247310
0.244380
0.242420
0.240470
0.239490
0.240470
0.242420
0.247310
0.254150
0.264910
0.278590
0.296190
0.317690
0.343110
0.371460
0.401760
0.432060
0.463340
0.493650
0.519060
0.540570
0.564030
0.587490
0.608990
0.628540
0.646140
0.660800
0.673510
0.683280
0.692080
0.697950
0.700880
0.700880
0.697950
0.693060
0.685240
0.676440
0.664710
0.652980
0.638320
0.623660
0.607040
0.589440
0.571850
0.556210
0.540570
0.522970
0.505380
0.487780
0.470190
0.452590
0.435970
0.420330
0.405670
0.391010
0.376340
0.362660
0.351910
0.341150
0.330400
0.317690
0.305960
0.294230
0.283480
0.272730
0.262950
0.255130
0.247310
0.240470
0.235580
0.232650
0.228740
0.223850
0.218960
0.215050
0.209190
0.204300
0.200390
0.196480
0.192570
0.188660
0.184750
0.183770
0.182800
0.180840
0.178890
0.176930
0.176930
0.177910
0.181820
0.188660
0.199410
0.214080
0.232650
0.253180
0.274680
0.300100
0.329420
0.358750
0.389050
0.418380
0.446730
0.474100
0.500490
0.524930
0.546430
0.564030
0.577710
0.591400
0.604110
0.613880
0.621700
0.625610
0.627570
0.625610
0.622680
0.616810
0.609970
0.601170
0.592380
0.582600
0.571850
0.559140
0.544480
0.528840
0.513200
0.495600
0.478980
0.462370
0.445750
0.428150
0.413490
0.399800
0.385140
0.369500
0.354840
0.340180
0.326490
0.312810
0.301080
0.289350
0.278590
0.268820
0.259040
0.252200
0.246330
0.238510
0.230690
0.222870
0.217010
0.210170
0.205280
0.201370
0.198440
0.195500
0.192570
0.191590
0.190620
0.188660
0.186710
0.183770
0.179860
0.176930
0.174000
0.171070
0.169110
0.167160
0.167160
0.167160
0.169110
0.173020
0.177910
0.186710
0.199410
0.217010
0.237540
0.261970
0.288370
0.317690
0.348000
0.378300
0.420330
0.466280
0.502440
0.532750
0.559140
0.583580
0.606060
0.625610
0.644180
0.659820
0.672530
0.683280
0.691100
0.695010
0.696970
0.696970
0.695990
0.693060
0.689150
0.683280
0.676440
0.667640
0.657870
0.647120
0.635390
0.624630
0.612900
0.601170
0.589440
0.576740
0.565000
0.552300
0.539590
0.526880
0.515150
0.502440
0.490710
0.479960
0.471160
0.464320
0.456500
0.448680
0.440860
0.433040
0.424240
0.417400
0.409580
0.403710
0.396870
0.391010
0.386120
0.382210
0.377320
0.373410
0.368520
0.365590
0.362660
0.359730
0.356790
0.352880
0.349950
0.346040
0.343110
0.342130
0.340180
0.339200
0.339200
0.340180
0.343110
0.348970
0.357770
0.370480
0.388070
0.408600
0.433040
0.456500
0.478980
0.505380
0.533720
0.562070
0.590420
0.617790
0.643210
0.667640
0.689150
0.709680
0.727270
0.741940
0.752690
0.760510
0.768330
0.773220
0.777130
0.778100
0.778100
0.775170
0.771260
0.765400
0.757580
0.747800
0.739000
0.729230
0.717500
0.704790
0.690130
0.674490
0.658850
0.642230
0.626590
0.609970
0.594330
0.578690
0.563050
0.550340
0.537630
0.523950
0.511240
0.498530
0.485830
0.475070
0.463340
0.452590
0.443790
0.435000
0.426200
0.419350
0.413490
0.406650
0.400780
0.394920
0.390030
0.385140
0.381230
0.376340
0.371460
0.366570
0.362660
0.359730
0.357770
0.356790
0.354840
0.351910
0.349950
0.348000
0.347020
0.346040
0.346040
0.349950
0.354840
0.364610
0.375370
0.388070
0.405670
0.427170
0.451610
0.478010
0.506350
0.534700
0.564030
0.591400
0.618770
0.645160
0.666670
0.684260
0.702830
0.719450
0.735090
0.747800
0.759530
0.768330
0.775170
0.779080
0.781040
0.781040
0.779080
0.775170
0.770280
0.763440
0.755620
0.745850
0.734120
0.721410
0.707720
0.692080
0.676440
0.659820
0.643210
0.628540
0.613880
0.599220
0.583580
0.567940
0.553270
0.539590
0.525900
0.513200
0.500490
0.488760
0.477030
0.466280
0.456500
0.448680
0.439880
0.433040
0.425220
0.418380
0.410560
0.404690
0.397850
0.391980
0.386120
0.381230
0.377320
0.375370
0.371460
0.368520
0.365590
0.362660
0.358750
0.355820
0.351910
0.348970
0.346040
0.343110
0.341150
0.340180
0.341150
0.343110
0.348970
0.356790
0.367550
0.382210
0.400780
0.422290
0.446730
0.473120
0.501470
0.525900
0.549360
0.574780
0.601170
0.626590
0.650050
0.670580
0.690130
0.706740
0.721410
0.734120
0.744870
0.753670
0.758550
0.760510
0.762460
0.761490
0.758550
0.752690
0.734120
0.709680
0.690130
0.673510
0.657870
0.642230
0.626590
0.611930
0.597260
0.581620
0.565000
0.548390
0.531770
0.514170
0.496580
0.478980
0.462370
0.444770
0.429130
0.414470
0.402740
0.391010
0.379280
0.368520
0.356790
0.346040
0.335290
0.325510
0.316720
0.308900
0.301080
0.295210
0.289350
0.283480
0.277610
0.271750
0.265880
0.261000
0.256110
0.253180
0.250240
0.247310
0.243400
0.240470
0.238510
0.236560
0.234600
0.232650
0.231670
0.230690
0.231670
0.234600
0.240470
0.249270
0.261970
0.278590
0.296190
0.314760
0.339200
0.366570
0.397850
0.430110
0.463340
0.495600
0.526880
0.555230
0.581620
0.605080
0.624630
0.640270
0.651030
0.662760
0.672530
0.681330
0.688170
0.693060
0.695990
0.695990
0.694040
0.689150
0.681330
0.672530
0.660800
0.648090
0.634410
0.618770
0.603130
0.586510
0.570870
0.553270
0.537630
0.520040
0.502440
0.484850
0.469210
0.454550
0.439880
0.426200
0.411530
0.397850
0.384160
0.370480
0.358750
0.347020
0.335290
0.325510
0.317690
0.310850
0.302050
0.294230
0.286410
0.280550
0.274680
0.268820
0.262950
0.258060
0.252200
0.247310
0.243400
0.240470
0.237540
0.235580
0.232650
0.229720
0.226780
0.224830
0.221900
0.219940
0.217990
0.217010
0.218960
0.221900
0.227760
0.237540
0.250240
0.265880
0.286410
0.310850
0.338220
0.367550
0.397850
0.429130
0.461390
0.487780
0.512220
0.537630
0.564030
0.588470
0.609970
0.628540
0.646140
0.659820
0.670580
0.679370
0.685240
0.688170
0.688170
0.685240
0.680350
0.674490
0.666670
0.656890
0.646140
0.633430
0.619750
0.606060
0.590420
0.573800
0.558160
0.543500
0.526880
0.510260
0.492670
0.475070
0.457480
0.440860
0.424240
0.408600
0.392960
0.378300
0.364610
0.352880
0.342130
0.330400
0.317690
0.305960
0.295210
0.284460
0.274680
0.266860
0.258060
0.250240
0.243400
0.239490
0.235580
0.230690
0.225810
0.219940
0.214080
0.207230
0.201370
0.197460
0.193550
0.189640
0.185730
0.181820
0.178890
0.177910
0.175950
0.174980
0.174980
0.176930
0.181820
0.188660
0.198440
0.211140
0.227760
0.247310
0.267840
0.289350
0.315740
0.345060
0.376340
0.407620
0.438910
0.469210
0.497560
0.523950
0.547410
0.567940
0.585530
0.598240
0.608020
0.615840
0.622680
0.626590
0.628540
0.628540
0.626590
0.621700
0.615840
0.608020
0.598240
0.587490
0.576740
0.564030
0.549360
0.533720
0.517110
0.499510
0.480940
0.462370
0.444770
0.427170
0.410560
0.394920
0.397850
0.411530
0.412510
0.405670
0.396870
0.386120
0.375370
0.364610
0.353860
0.343110
0.332360
0.322580
0.314760
0.308900
0.301080
0.294230
0.287390
0.280550
0.273700
0.268820
0.264910
0.261970
0.259040
0.256110
0.253180
0.252200
0.251220
0.250240
0.248290
0.245360
0.241450
0.238510
0.235580
0.233630
0.231670
0.232650
0.235580
0.240470
0.248290
0.259040
0.272730
0.289350
0.309870
0.334310
0.360700
0.390030
0.419350
0.450640
0.480940
0.509290
0.532750
0.554250
0.577710
0.600200
0.621700
0.642230
0.659820
0.674490
0.686220
0.695990
0.702830
0.706740
0.707720
0.706740
0.704790
0.700880
0.695010
0.688170
0.679370
0.669600
0.657870
0.646140
0.632450
0.619750
0.606060
0.593350
0.581620
0.567940
0.554250
0.540570
0.526880
0.513200
0.500490
0.487780
0.476050
0.464320
0.452590
0.442820
0.435000
0.426200
0.418380
0.410560
0.402740
0.394920
0.388070
0.381230
0.374390
0.368520
0.363640
0.358750
0.355820
0.350930
0.346040
0.341150
0.336270
0.331380
0.328450
0.325510
0.322580
0.319650
0.316720
0.314760
0.312810
0.312810
0.313780
0.316720
0.323560
0.333330
0.347020
0.364610
0.385140
0.410560
0.437930
0.467250
0.493650
0.518080
0.546430
0.574780
0.604110
0.631480
0.656890
0.680350
0.702830
0.722390
0.739980
0.754640
0.766370
0.774190
0.778100
0.782010
0.783970
0.783970
0.782010
0.778100
0.772240
0.763440
0.753670
0.741940
0.729230
0.717500
0.704790
0.690130
0.674490
0.657870
0.640270
0.621700
0.604110
0.586510
0.570870
0.555230
0.539590
0.524930
0.512220
0.500490
0.488760
0.476050
0.464320
0.452590
0.440860
0.431090
0.422290
0.414470
0.406650
0.398830
0.392960
0.388070
0.382210
0.376340
0.370480
0.364610
0.359730
0.355820
0.351910
0.348970
0.345060
0.342130
0.338220
0.335290
0.333330
0.330400
0.327470
0.325510
0.325510
0.326490
0.331380
0.339200
0.349950
0.364610
0.383190
0.402740
0.423260
0.447700
0.476050
0.507330
0.538610
0.570870
0.601170
0.629520
0.655910
0.681330
0.703810
0.724340
0.739000
0.750730
0.763440
0.774190
0.782990
0.788860
0.791790
0.792770
0.791790
0.788860
0.783970
0.778100
0.769310
0.760510
0.749760
0.738030
0.723360
0.708700
0.693060
0.676440
0.659820
0.642230
0.624630
0.608020
0.590420
0.575760
0.562070
0.548390
0.534700
0.521020
0.507330
0.493650
0.480940
0.469210
0.458460
0.447700
0.437930
0.430110
0.424240
0.417400
0.409580
0.401760
0.394920
0.388070
0.382210
0.379280
0.375370
0.372430
0.368520
0.364610
0.361680
0.359730
0.356790
0.353860
0.350930
0.348000
0.346040
0.344090
0.342130
0.341150
0.341150
0.343110
0.348000
0.353860
0.364610
0.378300
0.395890
0.415440
0.437930
0.461390
0.486800
0.512220
0.538610
0.564030
0.589440
0.608990
0.626590
0.645160
0.662760
0.678400
0.692080
0.703810
0.713590
0.720430
0.726300
0.730210
0.732160
0.732160
0.729230
0.724340
0.718480
0.711630
0.701860
0.691100
0.679370
0.667640
0.653960
0.641250
0.627570
0.613880
0.602150
0.589440
0.575760
0.561090
0.546430
0.530790
0.515150
0.501470
0.487780
0.475070
0.464320
0.454550
0.446730
0.439880
0.433040
0.426200
0.418380
0.409580
0.400780
0.393940
0.387100
0.381230
0.375370
0.369500
0.364610
0.361680
0.356790
0.352880
0.348970
0.345060
0.342130
0.339200
0.336270
0.334310
0.331380
0.328450
0.325510
0.324540
0.322580
0.321600
0.321600
0.323560
0.327470
0.335290
0.346040
0.359730
0.377320
0.397850
0.420330
0.441840
0.462370
0.485830
0.511240
0.536660
0.561090
0.584560
0.607040
0.626590
0.644180
0.659820
0.672530
0.683280
0.691100
0.695010
0.698920
0.701860
0.702830
0.701860
0.698920
0.694040
0.687190
0.678400
0.668620
0.657870
0.647120
0.635390
0.622680
0.609970
0.595310
0.581620
0.566960
0.553270
0.539590
0.525900
0.512220
0.498530
0.485830
0.475070
0.465300
0.455520
0.445750
0.435970
0.426200
0.417400
0.408600
0.399800
0.392960
0.385140
0.379280
0.374390
0.370480
0.365590
0.359730
0.355820
0.350930
0.346040
0.341150
0.337240
0.333330
0.328450
0.325510
0.321600
0.319650
0.318670
0.316720
0.315740
0.314760
0.313780
0.311830
0.311830
0.312810
0.314760
0.319650
0.326490
0.336270
0.348000
0.363640
0.383190
0.406650
0.430110
0.455520
0.479960
0.503420
0.526880
0.550340
0.571850
0.592380
0.608020
0.621700
0.634410
0.646140
0.655910
0.663730
0.669600
0.673510
0.674490
0.673510
0.671550
0.667640
0.661780
0.654940
0.645160
0.635390
0.623660
0.611930
0.599220
0.586510
0.572830
0.558160
0.543500
0.528840
0.513200
0.500490
0.488760
0.477030
0.464320
0.451610
0.438910
0.427170
0.413490
0.401760
0.390030
0.379280
0.368520
0.360700
0.353860
0.346040
0.337240
0.330400
0.323560
0.314760
0.307920
0.304010
0.299120
0.295210
0.291300
0.287390
0.285430
0.282500
0.279570
0.275660
0.271750
0.267840
0.264910
0.262950
0.260020
0.258060
0.255130
0.253180
0.253180
0.253180
0.253180
0.254150
0.257090
0.262950
0.271750
0.284460
0.300100
0.318670
0.341150
0.365590
0.391010
0.414470
0.435970
0.460410
0.485830
0.510260
0.533720
0.555230
0.574780
0.593350
0.608990
0.621700
0.632450
0.639300
0.643210
0.645160
0.646140
0.645160
0.641250
0.636360
0.629520
0.621700
0.612900
0.602150
0.591400
0.580650
0.568910
0.556210
0.542520
0.527860
0.513200
0.498530
0.484850
0.470190
0.456500
0.442820
0.430110
0.417400
0.406650
0.397850
0.388070
0.377320
0.367550
0.358750
0.349950
0.342130
0.334310
0.326490
0.318670
0.312810
0.307920
0.304010
0.299120
0.294230
0.289350
0.286410
0.283480
0.280550
0.278590
0.275660
0.272730
0.268820
0.265880
0.263930
0.261970
0.260020
0.257090
0.254150
0.252200
0.251220
0.251220
0.254150
0.258060
0.265880
0.276640
0.288370
0.303030
0.320630
0.343110
0.367550
0.394920
0.423260
0.452590
0.481920
0.509290
0.535680
0.560120
0.582600
0.600200
0.615840
0.631480
0.646140
0.658850
0.670580
0.679370
0.686220
0.691100
0.692080
0.692080
0.690130
0.687190
0.683280
0.677420
0.670580
0.662760
0.653960
0.645160
0.634410
0.622680
0.611930
0.599220
0.587490
0.574780
0.564030
0.554250
0.544480
0.533720
0.522970
0.513200
0.503420
0.493650
0.483870
0.474100
0.466280
0.457480
0.451610
0.445750
0.438910
0.433040
0.426200
0.420330
0.413490
0.407620
0.402740
0.397850
0.393940
0.389050
0.385140
0.382210
0.379280
0.376340
0.372430
0.368520
0.363640
0.359730
0.356790
0.354840
0.353860
0.354840
0.357770
0.362660
0.370480
0.380250
0.394920
0.412510
0.433040
0.456500
0.482890
0.510260
0.537630
0.565980
0.594330
0.620720
0.643210
0.661780
0.681330
0.699900
0.717500
0.733140
0.745850
0.756600
0.765400
0.771260
0.776150
0.778100
0.777130
0.774190
0.769310
0.763440
0.756600
0.747800
0.738030
0.727270
0.714570
0.701860
0.687190
0.672530
0.657870
0.643210
0.629520
0.614860
0.600200
0.584560
0.570870
0.556210
0.542520
0.528840
0.516130
0.503420
0.490710
0.480940
0.472140
0.463340
0.455520
0.445750
0.436950
0.429130
0.421310
0.414470
0.406650
0.399800
0.393940
0.388070
0.384160
0.381230
0.377320
0.374390
0.370480
0.366570
0.362660
0.359730
0.355820
0.352880
0.349950
0.348000
0.347020
0.347020
0.348970
0.352880
0.358750
0.369500
0.383190
0.399800
0.420330
0.443790
0.470190
0.497560
0.525900
0.550340
0.572830
0.597260
0.621700
0.646140
0.668620
0.689150
0.700880
0.706740
0.714570
0.722390
0.730210
0.734120
0.736070
0.738030
0.738030
0.737050
0.734120
0.729230
0.723360
0.715540
0.706740
0.696970
0.685240
0.674490
0.662760
0.650050
0.636360
0.621700
0.607040
0.592380
0.577710
0.564030
0.548390
0.534700
0.521020
0.507330
0.496580
0.487780
0.477030
0.467250
0.456500
0.446730
0.436950
0.427170
0.418380
0.410560
0.402740
0.395890
0.390030
0.385140
0.380250
0.374390
0.369500
0.363640
0.358750
0.354840
0.351910
0.348970
0.347020
0.344090
0.342130
0.340180
0.338220
0.335290
0.332360
0.330400
0.328450
0.328450
0.330400
0.336270
0.345060
0.356790
0.372430
0.388070
0.405670
0.425220
0.448680
0.473120
0.499510
0.524930
0.549360
0.572830
0.595310
0.616810
0.636360
0.652980
0.665690
0.675460
0.685240
0.694040
0.700880
0.705770
0.708700
0.709680
0.708700
0.705770
0.700880
0.694040
0.686220
0.677420
0.666670
0.654940
0.642230
0.629520
0.615840
0.603130
0.589440
0.575760
0.562070
0.547410
0.533720
0.521990
0.510260
0.497560
0.481920
0.468230
0.458460
0.447700
0.437930
0.427170
0.417400
0.408600
0.400780
0.393940
0.389050
0.383190
0.376340
0.370480
0.365590
0.359730
0.353860
0.348970
0.345060
0.340180
0.335290
0.331380
0.328450
0.327470
0.325510
0.322580
0.320630
0.317690
0.315740
0.314760
0.312810
0.311830
0.311830
0.313780
0.316720
0.321600
0.330400
0.343110
0.359730
0.379280
0.402740
0.428150
0.454550
0.480940
0.507330
0.532750
0.557180
0.576740
0.593350
0.610950
0.628540
0.645160
0.658850
0.670580
0.681330
0.688170
0.693060
0.695990
0.695990
0.694040
0.691100
0.686220
0.680350
0.672530
0.664710
0.654940
0.644180
0.632450
0.620720
0.608020
0.595310
0.582600
0.569890
0.558160
0.544480
0.530790
0.518080
0.504400
0.490710
0.478010
0.465300
0.453570
0.441840
0.431090
0.422290
0.415440
0.407620
0.398830
0.391010
0.385140
0.379280
0.372430
0.365590
0.359730
0.354840
0.349950
0.345060
0.342130
0.339200
0.336270
0.333330
0.330400
0.326490
0.323560
0.321600
0.319650
0.317690
0.316720
0.314760
0.314760
0.314760
0.314760
0.315740
0.317690
0.322580
0.331380
0.343110
0.358750
0.376340
0.397850
0.421310
0.446730
0.469210
0.489740
0.513200
0.536660
0.559140
0.581620
0.606060
0.626590
0.639300
0.652000
0.663730
0.673510
0.679370
0.683280
0.687190
0.689150
0.689150
0.688170
0.684260
0.680350
0.673510
0.665690
0.656890
0.646140
0.635390
0.623660
0.607040
0.586510
0.566960
0.548390
0.529810
0.511240
0.493650
0.477030
0.460410
0.444770
0.428150
0.415440
0.403710
0.391010
0.378300
0.365590
0.352880
0.340180
0.328450
0.317690
0.307920
0.299120
0.291300
0.285430
0.280550
0.273700
0.266860
0.260020
0.254150
0.249270
0.244380
0.240470
0.235580
0.230690
0.225810
0.220920
0.217010
0.215050
0.211140
0.208210
0.205280
0.203320
0.201370
0.201370
0.203320
0.207230
0.212120
0.219940
0.229720
0.242420
0.260020
0.280550
0.304010
0.331380
0.360700
0.391010
0.421310
0.450640
0.478980
0.505380
0.528840
0.548390
0.565980
0.582600
0.599220
0.612900
0.623660
0.632450
0.638320
0.641250
0.641250
0.638320
0.632450
0.625610
0.617790
0.608020
0.596290
0.583580
0.569890
0.556210
0.542520
0.526880
0.512220
0.496580
0.480940
0.465300
0.451610
0.438910
0.424240
0.408600
0.392960
0.377320
0.362660
0.349950
0.337240
0.324540
0.313780
0.303030
0.295210
0.289350
0.282500
0.273700
0.264910
0.256110
0.248290
0.240470
0.232650
0.225810
0.218960
0.214080
0.210170
0.207230
0.205280
0.202350
0.199410
0.195500
0.192570
0.188660
0.186710
0.183770
0.181820
0.179860
0.178890
0.179860
0.180840
0.183770
0.186710
0.193550
0.203320
0.217010
0.235580
0.256110
0.281520
0.307920
0.336270
0.366570
0.392960
0.417400
0.444770
0.473120
0.499510
0.523950
0.546430
0.565980
0.584560
0.600200
0.612900
0.624630
0.632450
0.638320
0.642230
0.644180
0.643210
0.639300
0.632450
0.623660
0.612900
0.602150
0.589440
0.577710
0.565000
0.552300
0.541540
0.527860
0.514170
0.499510
0.484850
0.469210
0.453570
0.438910
0.425220
0.411530
0.397850
0.387100
0.378300
0.368520
0.358750
0.348970
0.340180
0.332360
0.325510
0.318670
0.312810
0.306940
0.302050
0.299120
0.296190
0.295210
0.295210
0.294230
0.294230
0.294230
0.294230
0.294230
0.295210
0.295210
0.295210
0.295210
0.295210
0.296190
0.296190
0.298140
0.300100
0.304990
0.312810
0.324540
0.339200
0.357770
0.379280
0.402740
0.426200
0.448680
0.475070
0.504400
0.533720
0.563050
0.592380
0.619750
0.645160
0.667640
0.688170
0.706740
0.723360
0.735090
0.742910
0.750730
0.757580
0.762460
0.765400
0.765400
0.763440
0.759530
0.752690
0.743890
0.733140
0.721410
0.704790
0.689150
0.677420
0.663730
0.648090
0.631480
0.614860
0.597260
0.580650
0.563050
0.546430
0.530790
0.516130
0.503420
0.489740
0.475070
0.461390
0.447700
0.435000
0.422290
0.420330
0.423260
0.420330
0.415440
0.411530
0.406650
0.400780
0.394920
0.388070
0.382210
0.378300
0.374390
0.369500
0.365590
0.360700
0.356790
0.352880
0.349950
0.348000
0.346040
0.344090
0.342130
0.341150
0.341150
0.341150
0.343110
0.346040
0.352880
0.362660
0.373410
0.387100
0.404690
0.426200
0.449660
0.475070
0.507330
0.537630
0.558160
0.581620
0.609970
0.634410
0.652980
0.672530
0.688170
0.698920
0.707720
0.717500
0.725320
0.731180
0.735090
0.736070
0.735090
0.731180
0.727270
0.721410
0.713590
0.704790
0.694040
0.686220
0.674490
0.658850
0.643210
0.627570
0.611930
0.597260
0.582600
0.569890
0.558160
0.545450
0.531770
0.518080
0.504400
0.491690
0.478980
0.468230
0.457480
0.446730
0.436950
0.428150
0.421310
0.413490
0.405670
0.397850
0.391980
0.385140
0.379280
0.374390
0.368520
0.362660
0.357770
0.352880
0.348970
0.346040
0.343110
0.339200
0.336270
0.333330
0.330400
0.328450
0.325510
0.323560
0.321600
0.320630
0.321600
0.324540
0.330400
0.338220
0.349950
0.365590
0.384160
0.405670
0.429130
0.453570
0.479960
0.506350
0.531770
0.553270
0.571850
0.592380
0.611930
0.630500
0.647120
0.661780
0.674490
0.685240
0.694040
0.699900
0.704790
0.706740
0.706740
0.705770
0.702830
0.698920
0.693060
0.685240
0.676440
0.664710
0.652980
0.639300
0.625610
0.610950
0.598240
0.585530
0.572830
0.559140
0.546430
0.532750
0.520040
0.506350
0.493650
0.479960
0.467250
0.455520
0.445750
0.435970
0.426200
0.417400
0.407620
0.398830
0.390030
0.382210
0.374390
0.368520
0.362660
0.356790
0.351910
0.348970
0.346040
0.343110
0.339200
0.334310
0.330400
0.325510
0.321600
0.317690
0.314760
0.312810
0.310850
0.309870
0.310850
0.310850
0.312810
0.314760
0.318670
0.324540
0.333330
0.345060
0.359730
0.378300
0.398830
0.419350
0.439880
0.464320
0.489740
0.516130
0.541540
0.566960
0.590420
0.610950
0.630500
0.647120
0.661780
0.674490
0.683280
0.689150
0.694040
0.698920
0.700880
0.701860
0.700880
0.697950
0.694040
0.688170
0.680350
0.670580
0.661780
0.651030
0.638320
0.625610
0.611930
0.597260
0.582600
0.567940
0.553270
0.539590
0.525900
0.513200
0.501470
0.490710
0.481920
0.471160
0.460410
0.448680
0.438910
0.428150
0.419350
0.409580
0.400780
0.391980
0.385140
0.379280
0.375370
0.370480
0.365590
0.360700
0.355820
0.352880
0.349950
0.347020
0.344090
0.341150
0.337240
0.334310
0.331380
0.329420
0.312810
0.289350
0.276640
0.268820
0.263930
0.261000
0.261000
0.262950
0.268820
0.278590
0.291300
0.304990
0.323560
0.346040
0.372430
0.400780
0.431090
0.461390
0.491690
0.521990
0.550340
0.577710
0.602150
0.621700
0.637340
0.652980
0.667640
0.681330
0.692080
0.702830
0.706740
0.707720
0.705770
0.700880
0.694040
0.687190
0.678400
0.668620
0.658850
0.647120
0.633430
0.618770
0.603130
0.586510
0.568910
0.552300
0.535680
0.520040
0.506350
0.491690
0.477030
0.463340
0.449660
0.436950
0.424240
0.412510
0.400780
0.390030
0.379280
0.371460
0.361680
0.353860
0.346040
0.334310
0.327470
0.321600
0.314760
0.307920
0.302050
0.298140
0.293260
0.289350
0.286410
0.282500
0.275660
0.270770
0.266860
0.262950
0.260020
0.258060
0.257090
0.258060
0.261000
0.264910
0.270770
0.280550
0.294230
0.311830
0.333330
0.357770
0.383190
0.411530
0.439880
0.468230
0.492670
0.514170
0.536660
0.559140
0.581620
0.602150
0.619750
0.635390
0.647120
0.656890
0.664710
0.670580
0.672530
0.671550
0.669600
0.665690
0.658850
0.651030
0.641250
0.630500
0.617790
0.604110
0.588470
0.572830
0.556210
0.541540
0.526880
0.511240
0.494620
0.478980
0.462370
0.445750
0.429130
0.413490
0.397850
0.382210
0.367550
0.355820
0.345060
0.334310
0.322580
0.311830
0.301080
0.291300
0.281520
0.272730
0.264910
0.256110
0.248290
0.242420
0.238510
0.232650
0.226780
0.221900
0.216030
0.211140
0.207230
0.202350
0.196480
0.192570
0.187680
0.183770
0.181820
0.180840
0.179860
0.177910
0.176930
0.176930
0.177910
0.180840
0.185730
0.194530
0.206260
0.220920
0.236560
0.255130
0.278590
0.304990
0.334310
0.363640
0.394920
0.425220
0.454550
0.482890
0.509290
0.533720
0.554250
0.570870
0.583580
0.596290
0.608020
0.616810
0.622680
0.626590
0.627570
0.626590
0.622680
0.616810
0.608990
0.600200
0.590420
0.578690
0.565000
0.551320
0.535680
0.519060
0.502440
0.485830
0.469210
0.452590
0.435970
0.420330
0.406650
0.394920
0.382210
0.368520
0.354840
0.342130
0.329420
0.317690
0.305960
0.295210
0.284460
0.275660
0.268820
0.262950
0.257090
0.251220
0.245360
0.238510
0.232650
0.225810
0.220920
0.215050
0.210170
0.205280
0.201370
0.199410
0.198440
0.196480
0.194530
0.191590
0.189640
0.186710
0.184750
0.182800
0.182800
0.183770
0.185730
0.190620
0.198440
0.208210
0.221900
0.239490
0.261000
0.285430
0.312810
0.343110
0.388070
0.440860
0.482890
0.519060
0.546430
0.569890
0.593350
0.615840
0.635390
0.652980
0.668620
0.682310
0.694040
0.703810
0.712610
0.720430
0.724340
0.726300
0.727270
0.727270
0.725320
0.721410
0.715540
0.707720
0.697950
0.687190
0.674490
0.661780
0.647120
0.634410
0.622680
0.609970
0.596290
0.582600
0.569890
0.556210
0.544480
0.531770
0.521020
0.510260
0.500490
0.491690
0.483870
0.476050
0.467250
0.458460
0.449660
0.441840
0.435000
0.428150
0.421310
0.415440
0.408600
0.403710
0.399800
0.395890
0.391980
0.387100
0.382210
0.377320
0.372430
0.368520
0.365590
0.362660
0.360700
0.360700
0.360700
0.363640
0.367550
0.373410
0.384160
0.397850
0.415440
0.435970
0.461390
0.487780
0.517110
0.546430
0.575760
0.600200
0.621700
0.645160
0.669600
0.693060
0.714570
0.735090
0.752690
0.767350
0.779080
0.789830
0.797650
0.801560
0.803520
0.803520
0.802540
0.799610
0.794720
0.787880
0.779080
0.769310
0.758550
0.745850
0.732160
0.717500
0.703810
0.689150
0.673510
0.656890
0.641250
0.624630
0.608020
0.592380
0.575760
0.559140
0.543500
0.529810
0.518080
0.507330
0.495600
0.484850
0.474100
0.462370
0.449660
0.435970
0.420330
0.401760
0.380250
0.356790
0.335290
0.313780
0.289350
0.264910
0.240470
0.218960
0.200390
0.184750
0.168130
0.150540
0.130010
0.102640
0.069404
0.038123
0.019550
0.009775
0.004888
0.001955
0.000978
0.000000
0.000000
0.000000
0.000000
0.000000
0.000000
0.000000
0.000000
0.000000
0.000000
0.000000
0.000000
0.000000
0.000000
0.000000
0.000000
0.000000
0.005865
0.028348
0.059629
0.094819
0.134900
0.177910
0.222870
0.269790
0.320630
0.375370
0.431090
0.487780
0.541540
0.587490
0.620720
0.642230
0.655910
0.658850
0.653960
0.643210
0.629520
0.612900
0.594330
0.575760
0.555230
0.535680
0.517110
0.501470
0.486800
0.472140
0.455520
0.437930
0.418380
0.397850
0.376340
0.354840
0.333330
0.311830
0.289350
0.271750
0.255130
0.235580
0.213100
0.189640
0.166180
0.143700
0.126100
0.113390
0.107530
0.110460
0.122190
0.139780
0.159340
0.180840
0.203320
0.223850
0.240470
0.253180
0.262950
0.269790
0.275660
0.282500
0.292280
0.306940
0.322580
0.342130
0.366570
0.394920
0.423260
0.448680
0.471160
0.489740
0.504400
0.517110
0.529810
0.544480
0.564030
0.582600
0.604110
0.631480
0.664710
0.699900
0.736070
0.772240
0.808410
0.842620
0.874880
0.905180
0.932550
0.953080
0.968720
0.982400
0.929620
0.842620
0.800590
0.780060
0.768330
0.761490
0.755620
0.750730
0.744870
0.739000
0.733140
0.727270
0.720430
0.713590
0.706740
0.699900
0.694040
0.688170
0.681330
0.675460
0.669600
0.664710
0.658850
0.653960
0.648090
0.643210
0.638320
0.632450
0.627570
0.622680
0.617790
0.612900
0.608990
0.606060
0.602150
0.599220
0.596290
0.593350
0.589440
0.586510
0.583580
0.579670
0.576740
0.573800
0.570870
0.569890
0.568910
0.568910
0.568910
0.570870
0.573800
0.579670
0.586510
0.595310
0.605080
0.615840
0.626590
0.638320
0.649070
0.659820
0.667640
0.674490
0.682310
0.690130
0.696970
0.702830
0.707720
0.711630
0.714570
0.716520
0.718480
0.718480
0.716520
0.714570
0.711630
0.707720
0.702830
0.697950
0.692080
0.686220
0.679370
0.673510
0.666670
0.658850
0.652000
0.645160
0.638320
0.630500
0.623660
0.616810
0.609970
0.603130
0.596290
0.589440
0.582600
0.576740
0.570870
0.565980
0.562070
0.557180
0.553270
0.549360
0.545450
0.541540
0.538610
0.534700
0.531770
0.528840
0.525900
0.523950
0.521020
0.519060
0.518080
0.516130
0.514170
0.513200
0.512220
0.511240
0.509290
0.508310
0.506350
0.505380
0.504400
0.504400
0.503420
0.504400
0.505380
0.507330
0.511240
0.516130
0.522970
0.530790
0.540570
0.551320
0.561090
0.569890
0.579670
0.591400
0.602150
0.612900
0.622680
0.632450
0.640270
0.647120
0.652980
0.657870
0.661780
0.664710
0.665690
0.667640
0.668620
0.668620
0.667640
0.665690
0.661780
0.657870
0.652980
0.648090
0.642230
0.636360
0.630500
0.624630
0.618770
0.612900
0.606060
0.600200
0.593350
0.586510
0.579670
0.573800
0.568910
0.563050
0.558160
0.554250
0.549360
0.544480
0.540570
0.535680
0.531770
0.528840
0.525900
0.522970
0.520040
0.517110
0.515150
0.513200
0.512220
0.510260
0.508310
0.507330
0.506350
0.505380
0.505380
0.504400
0.504400
0.503420
0.503420
0.502440
0.502440
0.502440
0.501470
0.501470
0.502440
0.502440
0.503420
0.505380
0.508310
0.512220
0.517110
0.522970
0.529810
0.538610
0.548390
0.559140
0.570870
0.581620
0.593350
0.603130
0.613880
0.622680
0.631480
0.638320
0.644180
0.648090
0.651030
0.654940
0.656890
0.659820
0.660800
0.660800
0.660800
0.658850
0.655910
0.652980
0.649070
0.645160
0.640270
0.635390
0.629520
0.624630
0.618770
0.612900
0.608020
0.602150
0.597260
0.591400
0.586510
0.582600
0.577710
0.573800
0.567940
0.563050
0.559140
0.554250
0.550340
0.546430
0.488760
0.402740
0.356790
0.332360
0.317690
0.308900
0.303030
0.297170
0.292280
0.286410
0.281520
0.276640
0.270770
0.263930
0.257090
0.251220
0.246330
0.242420
0.238510
0.234600
0.230690
0.227760
0.224830
0.223850
0.221900
0.220920
0.217990
0.216030
0.215050
0.215050
0.215050
0.217010
0.221900
0.229720
0.241450
0.256110
0.272730
0.291300
0.310850
0.331380
0.351910
0.369500
0.385140
0.401760
0.418380
0.433040
0.446730
0.458460
0.467250
0.474100
0.478980
0.482890
0.483870
0.483870
0.481920
0.478980
0.474100
0.468230
0.461390
0.452590
0.442820
0.433040
0.422290
0.410560
0.399800
0.390030
0.381230
0.370480
0.359730
0.348000
0.337240
0.326490
0.314760
0.304010
0.293260
0.283480
0.273700
0.264910
0.257090
0.251220
0.243400
0.236560
0.230690
0.224830
0.218960
0.213100
0.207230
0.201370
0.196480
0.192570
0.189640
0.186710
0.182800
0.177910
0.174000
0.170090
0.166180
0.162270
0.158360
0.155430
0.153470
0.151520
0.150540
0.149560
0.149560
0.148580
0.147610
0.147610
0.148580
0.150540
0.154450
0.161290
0.170090
0.181820
0.196480
0.211140
0.226780
0.245360
0.265880
0.286410
0.307920
0.328450
0.348970
0.368520
0.386120
0.401760
0.415440
0.427170
0.435000
0.438910
0.442820
0.445750
0.447700
0.446730
0.444770
0.442820
0.438910
0.435000
0.429130
0.422290
0.415440
0.407620
0.398830
0.390030
0.382210
0.373410
0.364610
0.355820
0.348000
0.340180
0.331380
0.323560
0.315740
0.307920
0.302050
0.294230
0.287390
0.280550
0.273700
0.265880
0.260020
0.254150
0.249270
0.245360
0.240470
0.237540
0.234600
0.231670
0.228740
0.226780
0.224830
0.223850
0.221900
0.220920
0.217990
0.215050
0.212120
0.209190
0.207230
0.205280
0.203320
0.202350
0.201370
0.201370
0.201370
0.203320
0.207230
0.214080
0.223850
0.236560
0.250240
0.263930
0.282500
0.303030
0.325510
0.348000
0.370480
0.391980
0.411530
0.430110
0.446730
0.462370
0.476050
0.485830
0.493650
0.500490
0.506350
0.511240
0.514170
0.516130
0.516130
0.514170
0.510260
0.506350
0.500490
0.493650
0.485830
0.477030
0.467250
0.457480
0.445750
0.434020
0.422290
0.411530
0.399800
0.389050
0.378300
0.368520
0.359730
0.350930
0.343110
0.333330
0.323560
0.314760
0.304990
0.296190
0.288370
0.281520
0.274680
0.268820
0.264910
0.260020
0.256110
0.253180
0.249270
0.246330
0.244380
0.241450
0.238510
0.236560
0.233630
0.231670
0.229720
0.227760
0.226780
0.224830
0.256110
0.303030
0.325510
0.337240
0.343110
0.347020
0.350930
0.355820
0.363640
0.372430
0.384160
0.400780
0.422290
0.446730
0.474100
0.503420
0.534700
0.565980
0.597260
0.627570
0.655910
0.682310
0.701860
0.717500
0.733140
0.747800
0.760510
0.771260
0.780060
0.785920
0.790810
0.792770
0.791790
0.788860
0.782990
0.776150
0.768330
0.758550
0.748780
0.738030
0.726300
0.713590
0.699900
0.686220
0.672530
0.656890
0.643210
0.628540
0.614860
0.601170
0.588470
0.575760
0.564030
0.551320
0.539590
0.526880
0.515150
0.504400
0.493650
0.484850
0.478010
0.472140
0.466280
0.461390
0.456500
0.452590
0.447700
0.442820
0.438910
0.435000
0.431090
0.428150
0.426200
0.425220
0.423260
0.423260
0.422290
0.422290
0.422290
0.422290
0.421310
0.421310
0.421310
0.421310
0.422290
0.424240
0.427170
0.434020
0.442820
0.455520
0.473120
0.492670
0.517110
0.544480
0.573800
0.603130
0.628540
0.650050
0.675460
0.699900
0.723360
0.743890
0.762460
0.777130
0.789830
0.799610
0.807430
0.813290
0.817200
0.818180
0.817200
0.816230
0.813290
0.808410
0.803520
0.795700
0.787880
0.778100
0.768330
0.755620
0.742910
0.730210
0.717500
0.704790
0.692080
0.679370
0.666670
0.653960
0.643210
0.631480
0.620720
0.609970
0.599220
0.588470
0.577710
0.567940
0.557180
0.546430
0.534700
0.522970
0.511240
0.500490
0.490710
0.481920
0.473120
0.465300
0.457480
0.450640
0.442820
0.435970
0.429130
0.422290
0.415440
0.407620
0.399800
0.391980
0.384160
0.377320
0.369500
0.363640
0.359730
0.354840
0.349950
0.347020
0.345060
0.346040
0.349950
0.356790
0.367550
0.383190
0.402740
0.421310
0.439880
0.463340
0.486800
0.511240
0.535680
0.558160
0.578690
0.598240
0.615840
0.631480
0.644180
0.654940
0.661780
0.665690
0.669600
0.671550
0.671550
0.670580
0.666670
0.660800
0.652980
0.644180
0.634410
0.623660
0.611930
0.602150
0.590420
0.577710
0.565000
0.552300
0.538610
0.524930
0.511240
0.495600
0.479960
0.463340
0.447700
0.435000
0.424240
0.412510
0.400780
0.389050
0.378300
0.367550
0.356790
0.346040
0.335290
0.325510
0.316720
0.308900
0.303030
0.296190
0.288370
0.280550
0.272730
0.263930
0.256110
0.249270
0.242420
0.236560
0.231670
0.227760
0.225810
0.224830
0.222870
0.220920
0.217990
0.215050
0.213100
0.210170
0.209190
0.208210
0.208210
0.210170
0.214080
0.220920
0.230690
0.244380
0.261970
0.282500
0.307920
0.335290
0.363640
0.392960
0.420330
0.443790
0.463340
0.478980
0.495600
0.510260
0.522970
0.532750
0.540570
0.546430
0.550340
0.553270
0.554250
0.554250
0.552300
0.548390
0.543500
0.537630
0.529810
0.520040
0.509290
0.499510
0.489740
0.479960
0.469210
0.458460
0.446730
0.436950
0.427170
0.417400
0.406650
0.396870
0.388070
0.378300
0.369500
0.360700
0.351910
0.344090
0.336270
0.328450
0.323560
0.318670
0.312810
0.306940
0.301080
0.296190
0.292280
0.288370
0.284460
0.281520
0.279570
0.276640
0.275660
0.273700
0.271750
0.269790
0.267840
0.265880
0.264910
0.264910
0.264910
0.263930
0.263930
0.263930
0.263930
0.264910
0.265880
0.265880
0.267840
0.270770
0.275660
0.283480
0.294230
0.308900
0.325510
0.345060
0.365590
0.386120
0.404690
0.426200
0.446730
0.468230
0.488760
0.508310
0.524930
0.539590
0.552300
0.563050
0.570870
0.576740
0.580650
0.581620
0.582600
0.581620
0.579670
0.576740
0.571850
0.565980
0.560120
0.553270
0.544480
0.536660
0.528840
0.521020
0.512220
0.502440
0.492670
0.481920
0.472140
0.461390
0.450640
0.440860
0.432060
0.423260
0.414470
0.408600
0.403710
0.398830
0.392960
0.388070
0.382210
0.376340
0.370480
0.366570
0.362660
0.359730
0.356790
0.355820
0.354840
0.353860
0.353860
0.353860
0.353860
0.354840
0.355820
0.356790
0.356790
0.356790
0.356790
0.357770
0.358750
0.359730
0.360700
0.362660
0.364610
0.366570
0.370480
0.376340
0.384160
0.394920
0.408600
0.424240
0.438910
0.455520
0.474100
0.494620
0.516130
0.537630
0.557180
0.576740
0.593350
0.608990
0.621700
0.633430
0.643210
0.650050
0.654940
0.657870
0.660800
0.661780
0.661780
0.659820
0.655910
0.651030
0.644180
0.637340
0.628540
0.620720
0.610950
0.601170
0.590420
0.579670
0.568910
0.557180
0.545450
0.533720
0.521990
0.510260
0.499510
0.488760
0.478980
0.470190
0.462370
0.452590
0.443790
0.435000
0.427170
0.419350
0.411530
0.404690
0.397850
0.391980
0.386120
0.381230
0.375370
0.370480
0.365590
0.360700
0.356790
0.353860
0.349950
0.347020
0.343110
0.340180
0.337240
0.335290
0.334310
0.332360
0.330400
0.327470
0.322580
0.317690
0.311830
0.305960
0.302050
0.301080
0.301080
0.304990
0.311830
0.321600
0.335290
0.350930
0.369500
0.388070
0.404690
0.417400
0.424240
0.426200
0.423260
0.418380
0.412510
0.407620
0.404690
0.405670
0.408600
0.410560
0.407620
0.395890
0.374390
0.344090
0.306940
0.265880
0.229720
0.196480
0.158360
0.118280
0.127080
0.162270
0.162270
0.143700
0.118280
0.088954
0.058651
0.032258
0.015640
0.007820
0.003910
0.001955
0.000978
0.000000
0.000000
0.000000
0.000000
0.000000
0.000000
0.000000
0.000000
0.000000
0.000000
0.000978
0.008798
0.025415
0.046921
0.068426
0.089932
0.109480
0.126100
0.140760
0.153470
0.165200
0.174980
0.183770
0.191590
0.198440
0.205280
0.211140
0.215050
0.217010
0.218960
0.219940
0.221900
0.226780
0.233630
0.241450
0.249270
0.258060
0.265880
0.274680
0.282500
0.292280
0.303030
0.315740
0.331380
0.348970
0.366570
0.384160
0.403710
0.423260
0.441840
0.459430
0.475070
0.489740
0.501470
0.512220
0.521020
0.528840
0.535680
0.541540
0.547410
0.554250
0.560120
0.565980
0.570870
0.574780
0.577710
0.578690
0.578690
0.577710
0.575760
0.572830
0.568910
0.565000
0.560120
0.555230
0.549360
0.542520
0.537630
0.531770
0.526880
0.521990
0.518080
0.513200
0.510260
0.508310
0.505380
0.502440
0.498530
0.494620
0.490710
0.484850
0.479960
0.475070
0.471160
0.468230
0.466280
0.465300
0.465300
0.465300
0.465300
0.465300
0.465300
0.464320
0.464320
0.463340
0.461390
0.459430
0.458460
0.457480
0.456500
0.455520
0.454550
0.454550
0.455520
0.458460
0.464320
0.475070
0.488760
0.506350
0.525900
0.545450
0.565000
0.586510
0.608990
0.630500
0.652000
0.672530
0.692080
0.710650
0.726300
0.740960
0.752690
0.762460
0.769310
0.772240
0.775170
0.777130
0.778100
0.776150
0.774190
0.769310
0.763440
0.757580
0.749760
0.741940
0.734120
0.726300
0.718480
0.708700
0.698920
0.687190
0.675460
0.661780
0.647120
0.628540
0.608020
0.584560
0.559140
0.536660
0.515150
0.492670
0.470190
0.450640
0.434020
0.422290
0.414470
0.410560
0.411530
0.415440
0.423260
0.432060
0.440860
0.451610
0.463340
0.474100
0.484850
0.494620
0.503420
0.512220
0.520040
0.529810
0.539590
0.551320
0.564030
0.577710
0.594330
0.615840
0.639300
0.664710
0.690130
0.715540
0.739000
0.761490
0.783970
0.806450
0.826980
0.846530
0.870970
0.899320
0.930600
0.959920
0.980450
0.990220
0.995110
0.998040
0.999020
1.000000
1.000000
1.000000
1.000000
1.000000
1.000000
1.000000
1.000000
1.000000
1.000000
1.000000
1.000000
1.000000
1.000000
1.000000
1.000000
1.000000
1.000000
1.000000
1.000000
1.000000
1.000000
1.000000
1.000000
1.000000
1.000000
1.000000
1.000000
1.000000
1.000000
1.000000
0.999020
0.993160
0.984360
0.973610
0.961880
0.950150
0.869010
0.755620
0.696970
0.665690
0.648090
0.637340
0.630500
0.625610
0.621700
0.618770
0.615840
0.613880
0.610950
0.608990
0.606060
0.603130
0.601170
0.598240
0.596290
0.594330
0.591400
0.589440
0.587490
0.586510
0.584560
0.582600
0.581620
0.579670
0.578690
0.577710
0.576740
0.577710
0.578690
0.580650
0.584560
0.588470
0.593350
0.598240
0.603130
0.607040
0.610950
0.613880
0.617790
0.620720
0.623660
0.625610
0.627570
0.628540
0.629520
0.630500
0.630500
0.629520
0.628540
0.626590
0.625610
0.623660
0.621700
0.618770
0.615840
0.612900
0.609970
0.606060
0.602150
0.597260
0.592380
0.587490
0.582600
0.576740
0.569890
0.564030
0.557180
0.550340
0.543500
0.536660
0.529810
0.522970
0.517110
0.511240
0.506350
0.501470
0.495600
0.490710
0.484850
0.479960
0.474100
0.469210
0.464320
0.459430
0.454550
0.450640
0.447700
0.443790
0.439880
0.435970
0.433040
0.429130
0.426200
0.422290
0.419350
0.416420
0.413490
0.410560
0.408600
0.407620
0.405670
0.403710
0.401760
0.400780
0.399800
0.399800
0.400780
0.402740
0.405670
0.409580
0.413490
0.418380
0.423260
0.429130
0.435000
0.440860
0.446730
0.451610
0.456500
0.460410
0.464320
0.467250
0.469210
0.471160
0.472140
0.473120
0.474100
0.474100
0.473120
0.473120
0.472140
0.470190
0.468230
0.465300
0.463340
0.460410
0.458460
0.455520
0.452590
0.449660
0.446730
0.443790
0.440860
0.437930
0.435000
0.432060
0.429130
0.426200
0.424240
0.422290
0.420330
0.418380
0.416420
0.414470
0.412510
0.410560
0.408600
0.406650
0.405670
0.403710
0.402740
0.402740
0.401760
0.400780
0.400780
0.400780
0.400780
0.399800
0.399800
0.399800
0.398830
0.398830
0.398830
0.399800
0.399800
0.400780
0.400780
0.400780
0.400780
0.400780
0.400780
0.400780
0.401760
0.402740
0.404690
0.407620
0.410560
0.414470
0.419350
0.425220
0.432060
0.438910
0.445750
0.453570
0.460410
0.467250
0.474100
0.479960
0.485830
0.490710
0.494620
0.499510
0.503420
0.506350
0.509290
0.511240
0.513200
0.514170
0.514170
0.514170
0.514170
0.513200
0.511240
0.509290
0.507330
0.504400
0.501470
0.498530
0.495600
0.492670
0.489740
0.486800
0.483870
0.481920
0.478980
0.476050
0.473120
0.470190
0.468230
0.465300
0.462370
0.460410
0.458460
0.456500
0.455520
0.454550
0.454550
0.453570
0.453570
0.452590
0.452590
0.451610
0.451610
0.451610
0.451610
0.450640
0.450640
0.450640
0.450640
0.450640
0.450640
0.450640
0.426200
0.390030
0.371460
0.362660
0.358750
0.356790
0.355820
0.356790
0.358750
0.360700
0.364610
0.369500
0.377320
0.386120
0.396870
0.408600
0.422290
0.436950
0.451610
0.466280
0.478010
0.489740
0.501470
0.513200
0.524930
0.534700
0.543500
0.551320
0.558160
0.563050
0.566960
0.568910
0.569890
0.569890
0.568910
0.566960
0.564030
0.561090
0.557180
0.552300
0.546430
0.539590
0.532750
0.525900
0.518080
0.510260
0.503420
0.496580
0.488760
0.480940
0.474100
0.466280
0.459430
0.452590
0.445750
0.438910
0.432060
0.426200
0.421310
0.417400
0.412510
0.407620
0.403710
0.399800
0.395890
0.391980
0.388070
0.385140
0.381230
0.378300
0.376340
0.375370
0.373410
0.371460
0.370480
0.368520
0.367550
0.365590
0.363640
0.361680
0.359730
0.358750
0.357770
0.357770
0.358750
0.359730
0.362660
0.366570
0.372430
0.380250
0.390030
0.401760
0.414470
0.429130
0.444770
0.458460
0.471160
0.485830
0.500490
0.515150
0.527860
0.540570
0.551320
0.560120
0.567940
0.574780
0.579670
0.584560
0.587490
0.589440
0.590420
0.590420
0.590420
0.588470
0.585530
0.581620
0.575760
0.570870
0.564030
0.557180
0.551320
0.545450
0.537630
0.529810
0.521990
0.514170
0.505380
0.497560
0.489740
0.481920
0.474100
0.466280
0.459430
0.453570
0.447700
0.442820
0.436950
0.432060
0.426200
0.421310
0.417400
0.412510
0.408600
0.404690
0.400780
0.397850
0.395890
0.393940
0.391010
0.388070
0.386120
0.383190
0.381230
0.379280
0.378300
0.376340
0.375370
0.374390
0.373410
0.372430
0.371460
0.369500
0.369500
0.369500
0.370480
0.372430
0.377320
0.383190
0.391010
0.401760
0.411530
0.422290
0.435970
0.451610
0.467250
0.482890
0.497560
0.512220
0.525900
0.538610
0.551320
0.562070
0.569890
0.575760
0.581620
0.586510
0.590420
0.593350
0.595310
0.596290
0.596290
0.594330
0.592380
0.589440
0.585530
0.581620
0.576740
0.570870
0.564030
0.557180
0.549360
0.541540
0.532750
0.524930
0.516130
0.508310
0.501470
0.494620
0.488760
0.481920
0.476050
0.469210
0.463340
0.456500
0.450640
0.444770
0.438910
0.433040
0.428150
0.423260
0.420330
0.417400
0.413490
0.410560
0.408600
0.405670
0.402740
0.400780
0.398830
0.396870
0.394920
0.391980
0.391010
0.390030
0.388070
0.387100
0.385140
0.383190
0.382210
0.381230
0.380250
0.380250
0.380250
0.381230
0.383190
0.386120
0.391010
0.397850
0.405670
0.416420
0.428150
0.441840
0.456500
0.472140
0.488760
0.503420
0.541540
0.591400
0.625610
0.653960
0.679370
0.701860
0.719450
0.735090
0.746820
0.755620
0.762460
0.767350
0.770280
0.770280
0.768330
0.764420
0.758550
0.750730
0.741940
0.732160
0.720430
0.707720
0.694040
0.679370
0.663730
0.648090
0.633430
0.620720
0.605080
0.589440
0.573800
0.558160
0.542520
0.527860
0.513200
0.499510
0.485830
0.473120
0.461390
0.452590
0.444770
0.436950
0.429130
0.421310
0.413490
0.405670
0.396870
0.390030
0.382210
0.376340
0.370480
0.367550
0.365590
0.362660
0.359730
0.357770
0.353860
0.350930
0.347020
0.345060
0.342130
0.340180
0.337240
0.335290
0.334310
0.335290
0.336270
0.339200
0.344090
0.352880
0.365590
0.382210
0.402740
0.427170
0.455520
0.485830
0.513200
0.539590
0.567940
0.597260
0.626590
0.654940
0.681330
0.704790
0.725320
0.743890
0.760510
0.773220
0.782990
0.789830
0.792770
0.794720
0.794720
0.793740
0.790810
0.784950
0.779080
0.770280
0.760510
0.748780
0.736070
0.722390
0.709680
0.694040
0.677420
0.660800
0.643210
0.626590
0.608990
0.591400
0.573800
0.557180
0.540570
0.524930
0.511240
0.499510
0.485830
0.473120
0.461390
0.449660
0.438910
0.428150
0.417400
0.406650
0.397850
0.389050
0.382210
0.376340
0.369500
0.362660
0.355820
0.349950
0.345060
0.340180
0.336270
0.332360
0.327470
0.323560
0.320630
0.317690
0.313780
0.308900
0.304990
0.301080
0.299120
0.298140
0.298140
0.300100
0.303030
0.309870
0.319650
0.331380
0.345060
0.362660
0.386120
0.412510
0.442820
0.474100
0.505380
0.535680
0.565000
0.592380
0.618770
0.639300
0.656890
0.675460
0.693060
0.709680
0.723360
0.734120
0.741940
0.747800
0.749760
0.748780
0.745850
0.739980
0.733140
0.725320
0.714570
0.702830
0.690130
0.677420
0.662760
0.648090
0.632450
0.616810
0.601170
0.584560
0.569890
0.556210
0.540570
0.525900
0.510260
0.495600
0.480940
0.467250
0.452590
0.439880
0.426200
0.413490
0.401760
0.391980
0.384160
0.376340
0.368520
0.360700
0.351910
0.345060
0.338220
0.331380
0.324540
0.318670
0.313780
0.309870
0.307920
0.304990
0.301080
0.298140
0.295210
0.292280
0.289350
0.287390
0.284460
0.281520
0.279570
0.278590
0.278590
0.280550
0.283480
0.287390
0.293260
0.302050
0.313780
0.329420
0.348000
0.372430
0.399800
0.431090
0.458460
0.485830
0.515150
0.545450
0.576740
0.605080
0.632450
0.656890
0.678400
0.696970
0.713590
0.726300
0.736070
0.741940
0.744870
0.747800
0.747800
0.746820
0.731180
0.708700
0.693060
0.680350
0.667640
0.654940
0.642230
0.630500
0.618770
0.606060
0.592380
0.577710
0.564030
0.550340
0.538610
0.527860
0.517110
0.506350
0.495600
0.485830
0.478010
0.471160
0.464320
0.456500
0.449660
0.441840
0.435000
0.428150
0.422290
0.416420
0.410560
0.405670
0.402740
0.399800
0.395890
0.392960
0.390030
0.388070
0.386120
0.384160
0.381230
0.377320
0.374390
0.370480
0.365590
0.362660
0.359730
0.357770
0.354840
0.353860
0.354840
0.357770
0.364610
0.375370
0.391010
0.410560
0.433040
0.454550
0.477030
0.504400
0.533720
0.564030
0.595310
0.625610
0.654940
0.682310
0.708700
0.731180
0.751710
0.769310
0.782010
0.791790
0.800590
0.807430
0.812320
0.815250
0.815250
0.813290
0.810360
0.804500
0.795700
0.785920
0.775170
0.763440
0.750730
0.737050
0.723360
0.708700
0.693060
0.677420
0.661780
0.645160
0.628540
0.611930
0.597260
0.584560
0.569890
0.556210
0.541540
0.527860
0.514170
0.501470
0.487780
0.476050
0.464320
0.454550
0.444770
0.437930
0.431090
0.424240
0.417400
0.409580
0.402740
0.396870
0.391980
0.388070
0.384160
0.379280
0.375370
0.371460
0.368520
0.364610
0.360700
0.356790
0.353860
0.350930
0.349950
0.348970
0.349950
0.351910
0.357770
0.366570
0.378300
0.392960
0.412510
0.435970
0.463340
0.492670
0.523950
0.556210
0.587490
0.617790
0.647120
0.674490
0.695990
0.715540
0.735090
0.753670
0.771260
0.786900
0.799610
0.809380
0.815250
0.819160
0.819160
0.818180
0.815250
0.811340
0.805470
0.798630
0.789830
0.779080
0.766370
0.751710
0.737050
0.720430
0.702830
0.685240
0.667640
0.651030
0.636360
0.620720
0.604110
0.588470
0.571850
0.555230
0.540570
0.525900
0.512220
0.498530
0.486800
0.474100
0.464320
0.455520
0.445750
0.436950
0.428150
0.418380
0.410560
0.402740
0.395890
0.389050
0.382210
0.375370
0.370480
0.366570
0.363640
0.359730
0.356790
0.353860
0.350930
0.348000
0.345060
0.343110
0.340180
0.337240
0.335290
0.335290
0.336270
0.340180
0.346040
0.355820
0.369500
0.386120
0.406650
0.432060
0.459430
0.489740
0.521020
0.548390
0.573800
0.601170
0.628540
0.653960
0.678400
0.699900
0.719450
0.738030
0.753670
0.766370
0.776150
0.783970
0.787880
0.789830
0.789830
0.788860
0.785920
0.780060
0.773220
0.764420
0.753670
0.741940
0.729230
0.714570
0.700880
0.687190
0.671550
0.653960
0.637340
0.619750
0.603130
0.586510
0.570870
0.556210
0.540570
0.525900
0.490710
0.447700
0.422290
0.402740
0.387100
0.373410
0.361680
0.350930
0.342130
0.333330
0.325510
0.317690
0.310850
0.304990
0.300100
0.294230
0.287390
0.281520
0.277610
0.273700
0.270770
0.267840
0.264910
0.261970
0.258060
0.253180
0.249270
0.246330
0.244380
0.241450
0.239490
0.239490
0.241450
0.246330
0.255130
0.266860
0.281520
0.301080
0.321600
0.343110
0.369500
0.399800
0.431090
0.463340
0.494620
0.524930
0.553270
0.579670
0.604110
0.625610
0.644180
0.657870
0.667640
0.677420
0.686220
0.693060
0.696970
0.697950
0.696970
0.695010
0.689150
0.682310
0.674490
0.664710
0.654940
0.643210
0.630500
0.616810
0.602150
0.587490
0.570870
0.554250
0.536660
0.520040
0.503420
0.488760
0.475070
0.459430
0.443790
0.428150
0.414470
0.400780
0.388070
0.376340
0.365590
0.355820
0.347020
0.338220
0.331380
0.325510
0.318670
0.312810
0.305960
0.299120
0.292280
0.285430
0.279570
0.273700
0.269790
0.266860
0.264910
0.262950
0.261000
0.259040
0.256110
0.252200
0.249270
0.246330
0.243400
0.240470
0.240470
0.241450
0.244380
0.249270
0.258060
0.269790
0.285430
0.305960
0.329420
0.356790
0.386120
0.418380
0.450640
0.482890
0.513200
0.538610
0.560120
0.582600
0.604110
0.623660
0.642230
0.656890
0.669600
0.680350
0.688170
0.694040
0.696970
0.696970
0.695990
0.692080
0.688170
0.681330
0.672530
0.660800
0.647120
0.632450
0.616810
0.601170
0.585530
0.569890
0.556210
0.541540
0.526880
0.510260
0.492670
0.476050
0.459430
0.443790
0.428150
0.413490
0.398830
0.385140
0.371460
0.360700
0.351910
0.341150
0.330400
0.320630
0.310850
0.301080
0.291300
0.281520
0.273700
0.265880
0.258060
0.251220
0.246330
0.240470
0.235580
0.230690
0.225810
0.221900
0.217990
0.213100
0.207230
0.202350
0.196480
0.191590
0.189640
0.187680
0.186710
0.186710
0.187680
0.189640
0.195500
0.204300
0.216030
0.232650
0.253180
0.277610
0.301080
0.324540
0.352880
0.383190
0.414470
0.443790
0.472140
0.499510
0.523950
0.544480
0.563050
0.579670
0.593350
0.602150
0.608020
0.613880
0.618770
0.620720
0.620720
0.617790
0.611930
0.604110
0.594330
0.581620
0.567940
0.555230
0.542520
0.528840
0.513200
0.498530
0.482890
0.466280
0.450640
0.434020
0.418380
0.401760
0.384160
0.367550
0.352880
0.340180
0.326490
0.312810
0.300100
0.286410
0.274680
0.262950
0.251220
0.241450
0.231670
0.223850
0.218960
0.214080
0.208210
0.202350
0.196480
0.190620
0.201370
0.221900
0.228740
0.229720
0.226780
0.223850
0.220920
0.219940
0.218960
0.217010
0.215050
0.213100
0.211140
0.210170
0.208210
0.207230
0.207230
0.210170
0.214080
0.220920
0.229720
0.242420
0.259040
0.279570
0.304010
0.330400
0.358750
0.388070
0.417400
0.446730
0.475070
0.500490
0.521990
0.543500
0.565000
0.585530
0.603130
0.618770
0.630500
0.640270
0.648090
0.652980
0.655910
0.656890
0.655910
0.652000
0.646140
0.638320
0.629520
0.619750
0.608020
0.596290
0.584560
0.570870
0.556210
0.540570
0.526880
0.513200
0.498530
0.483870
0.468230
0.454550
0.441840
0.429130
0.418380
0.407620
0.396870
0.386120
0.374390
0.364610
0.356790
0.348000
0.339200
0.330400
0.322580
0.313780
0.306940
0.302050
0.297170
0.293260
0.289350
0.288370
0.287390
0.285430
0.284460
0.283480
0.282500
0.281520
0.282500
0.283480
0.284460
0.285430
0.287390
0.290320
0.294230
0.298140
0.304990
0.313780
0.326490
0.343110
0.364610
0.389050
0.417400
0.447700
0.478980
0.512220
0.541540
0.566960
0.594330
0.621700
0.648090
0.672530
0.695010
0.715540
0.733140
0.747800
0.760510
0.770280
0.778100
0.782010
0.782990
0.783970
0.782990
0.780060
0.774190
0.766370
0.756600
0.745850
0.733140
0.720430
0.707720
0.695010
0.682310
0.668620
0.652980
0.637340
0.620720
0.605080
0.589440
0.572830
0.557180
0.542520
0.526880
0.511240
0.497560
0.485830
0.474100
0.462370
0.451610
0.441840
0.432060
0.424240
0.416420
0.408600
0.400780
0.391980
0.385140
0.380250
0.374390
0.369500
0.364610
0.360700
0.356790
0.352880
0.348970
0.345060
0.341150
0.338220
0.334310
0.332360
0.331380
0.329420
0.329420
0.330400
0.332360
0.338220
0.347020
0.359730
0.376340
0.397850
0.422290
0.446730
0.471160
0.499510
0.529810
0.560120
0.590420
0.619750
0.648090
0.673510
0.697950
0.720430
0.739980
0.757580
0.771260
0.781040
0.790810
0.798630
0.805470
0.809380
0.810360
0.808410
0.803520
0.796680
0.787880
0.778100
0.767350
0.755620
0.742910
0.728250
0.713590
0.696970
0.681330
0.664710
0.647120
0.630500
0.612900
0.596290
0.580650
0.565980
0.552300
0.538610
0.524930
0.511240
0.498530
0.485830
0.474100
0.463340
0.452590
0.441840
0.431090
0.424240
0.417400
0.410560
0.402740
0.394920
0.387100
0.381230
0.375370
0.370480
0.366570
0.361680
0.357770
0.353860
0.350930
0.348970
0.345060
0.342130
0.338220
0.335290
0.333330
0.331380
0.331380
0.333330
0.337240
0.345060
0.357770
0.374390
0.391010
0.408600
0.429130
0.451610
0.476050
0.502440
0.527860
0.554250
0.578690
0.603130
0.621700
0.636360
0.652000
0.666670
0.679370
0.691100
0.700880
0.708700
0.715540
0.720430
0.723360
0.724340
0.723360
0.720430
0.715540
0.709680
0.701860
0.693060
0.683280
0.671550
0.659820
0.647120
0.633430
0.619750
0.605080
0.592380
0.579670
0.566960
0.554250
0.541540
0.528840
0.517110
0.505380
0.494620
0.483870
0.474100
0.463340
0.453570
0.444770
0.437930
0.430110
0.421310
0.414470
0.406650
0.400780
0.394920
0.389050
0.383190
0.378300
0.373410
0.370480
0.367550
0.364610
0.360700
0.358750
0.355820
0.353860
0.351910
0.348970
0.347020
0.344090
0.342130
0.340180
0.340180
0.341150
0.343110
0.347020
0.352880
0.362660
0.375370
0.391010
0.410560
0.432060
0.455520
0.480940
0.502440
0.522970
0.544480
0.565980
0.587490
0.608990
0.627570
0.645160
0.660800
0.673510
0.684260
0.692080
0.698920
0.700880
0.701860
0.701860
0.699900
0.697950
0.694040
0.689150
0.682310
0.673510
0.663730
0.652980
0.641250
0.629520
0.618770
0.606060
0.594330
0.580650
0.567940
0.555230
0.542520
0.529810
0.517110
0.504400
0.491690
0.479960
0.469210
0.461390
0.451610
0.442820
0.433040
0.424240
0.416420
0.408600
0.401760
0.395890
0.390030
0.385140
0.381230
0.377320
0.372430
0.368520
0.364610
0.360700
0.357770
0.354840
0.352880
0.349950
0.347020
0.345060
0.343110
0.341150
0.340180
0.339200
0.338220
0.338220
0.337240
0.338220
0.339200
0.342130
0.348000
0.357770
0.370480
0.384160
0.398830
0.418380
0.440860
0.465300
0.489740
0.514170
0.537630
0.560120
0.582600
0.603130
0.621700
0.638320
0.650050
0.659820
0.668620
0.677420
0.684260
0.688170
0.691100
0.692080
0.692080
0.689150
0.685240
0.679370
0.672530
0.664710
0.654940
0.645160
0.633430
0.621700
0.608990
0.597260
0.584560
0.571850
0.559140
0.545450
0.532750
0.520040
0.509290
0.497560
0.484850
0.473120
0.462370
0.451610
0.440860
0.431090
0.421310
0.412510
0.403710
0.396870
0.391010
0.385140
0.378300
0.372430
0.365590
0.359730
0.354840
0.350930
0.346040
0.343110
0.340180
0.337240
0.335290
0.333330
0.330400
0.327470
0.325510
0.323560
0.321600
0.319650
0.318670
0.317690
0.316720
0.317690
0.320630
0.324540
0.331380
0.340180
0.352880
0.368520
0.388070
0.410560
0.434020
0.459430
0.483870
0.509290
0.529810
0.548390
0.567940
0.587490
0.605080
0.620720
0.634410
0.649070
0.663730
0.675460
0.684260
0.691100
0.695010
0.695010
0.693060
0.689150
0.684260
0.677420
0.668620
0.658850
0.647120
0.634410
0.620720
0.605080
0.589440
0.574780
0.561090
0.546430
0.531770
0.518080
0.503420
0.489740
0.475070
0.461390
0.446730
0.432060
0.417400
0.403710
0.392960
0.384160
0.374390
0.365590
0.356790
0.348970
0.340180
0.332360
0.324540
0.316720
0.309870
0.304010
0.298140
0.294230
0.289350
0.283480
0.277610
0.272730
0.266860
0.262950
0.258060
0.254150
0.250240
0.246330
0.242420
0.240470
0.238510
0.236560
0.234600
0.233630
0.232650
0.232650
0.234600
0.241450
0.252200
0.267840
0.287390
0.308900
0.331380
0.357770
0.387100
0.417400
0.447700
0.477030
0.504400
0.530790
0.554250
0.575760
0.594330
0.610950
0.621700
0.630500
0.638320
0.645160
0.650050
0.652980
0.652980
0.650050
0.644180
0.636360
0.627570
0.616810
0.606060
0.595310
0.582600
0.568910
0.553270
0.537630
0.520040
0.503420
0.485830
0.470190
0.453570
0.437930
0.421310
0.407620
0.395890
0.383190
0.370480
0.357770
0.346040
0.333330
0.321600
0.309870
0.299120
0.288370
0.277610
0.268820
0.261970
0.255130
0.247310
0.240470
0.233630
0.226780
0.221900
0.217010
0.213100
0.209190
0.205280
0.201370
0.198440
0.197460
0.194530
0.190620
0.187680
0.183770
0.181820
0.179860
0.177910
0.176930
0.177910
0.179860
0.183770
0.189640
0.198440
0.210170
0.224830
0.244380
0.266860
0.292280
0.320630
0.349950
0.380250
0.410560
0.439880
0.464320
0.485830
0.508310
0.529810
0.550340
0.567940
0.583580
0.596290
0.607040
0.615840
0.621700
0.624630
0.624630
0.622680
0.618770
0.611930
0.604110
0.594330
0.584560
0.572830
0.562070
0.549360
0.536660
0.521990
0.508310
0.494620
0.481920
0.468230
0.452590
0.437930
0.423260
0.409580
0.395890
0.383190
0.370480
0.358750
0.347020
0.337240
0.328450
0.319650
0.310850
0.303030
0.295210
0.287390
0.281520
0.274680
0.268820
0.263930
0.259040
0.256110
0.254150
0.251220
0.248290
0.247310
0.245360
0.244380
0.244380
0.245360
0.246330
0.247310
0.249270
0.250240
0.252200
0.256110
0.260020
0.266860
0.274680
0.285430
0.301080
0.319650
0.343110
0.370480
0.399800
0.431090
0.458460
0.483870
0.512220
0.541540
0.569890
0.597260
0.623660
0.649070
0.672530
0.692080
0.709680
0.723360
0.734120
0.741940
0.745850
0.748780
0.749760
0.749760
0.746820
0.742910
0.736070
0.726300
0.716520
0.704790
0.692080
0.678400
0.668620
0.659820
0.648090
0.635390
0.621700
0.607040
0.593350
0.579670
0.565980
0.552300
0.538610
0.524930
0.513200
0.503420
0.492670
0.482890
0.473120
0.465300
0.456500
0.447700
0.438910
0.431090
0.424240
0.417400
0.411530
0.405670
0.399800
0.394920
0.389050
0.383190
0.378300
0.374390
0.370480
0.367550
0.363640
0.361680
0.358750
0.356790
0.355820
0.354840
0.352880
0.351910
0.350930
0.350930
0.353860
0.357770
0.366570
0.378300
0.393940
0.410560
0.428150
0.451610
0.478980
0.507330
0.535680
0.564030
0.591400
0.617790
0.641250
0.663730
0.683280
0.701860
0.714570
0.724340
0.735090
0.743890
0.751710
0.757580
0.762460
0.764420
0.764420
0.762460
0.759530
0.754640
0.749760
0.741940
0.733140
0.723360
0.710650
0.697950
0.683280
0.667640
0.652000
0.637340
0.622680
0.608020
0.594330
0.581620
0.569890
0.558160
0.545450
0.533720
0.521020
0.509290
0.498530
0.486800
0.477030
0.468230
0.459430
0.452590
0.445750
0.438910
0.432060
0.425220
0.419350
0.413490
0.407620
0.402740
0.397850
0.393940
0.390030
0.387100
0.384160
0.382210
0.378300
0.375370
0.371460
0.368520
0.364610
0.362660
0.360700
0.360700
0.361680
0.364610
0.369500
0.375370
0.386120
0.398830
0.416420
0.435970
0.459430
0.484850
0.511240
0.538610
0.565000
0.590420
0.613880
0.633430
0.649070
0.666670
0.683280
0.698920
0.712610
0.724340
0.734120
0.741940
0.746820
0.749760
0.749760
0.748780
0.744870
0.740960
0.734120
0.726300
0.717500
0.707720
0.696970
0.685240
0.673510
0.660800
0.647120
0.632450
0.619750
0.607040
0.593350
0.579670
0.565980
0.552300
0.538610
0.525900
0.514170
0.501470
0.489740
0.478980
0.469210
0.461390
0.452590
0.443790
0.436950
0.431090
0.425220
0.420330
0.413490
0.407620
0.400780
0.394920
0.390030
0.386120
0.382210
0.378300
0.375370
0.371460
0.368520
0.365590
0.362660
0.359730
0.357770
0.354840
0.352880
0.351910
0.351910
0.351910
0.353860
0.357770
0.364610
0.373410
0.386120
0.402740
0.422290
0.444770
0.469210
0.492670
0.514170
0.538610
0.563050
0.587490
0.610950
0.633430
0.653960
0.671550
0.687190
0.700880
0.711630
0.720430
0.726300
0.729230
0.731180
0.732160
0.731180
0.729230
0.724340
0.718480
0.710650
0.702830
0.692080
0.681330
0.670580
0.658850
0.647120
0.633430
0.619750
0.605080
0.591400
0.577710
0.563050
0.549360
0.536660
0.522970
0.509290
0.498530
0.488760
0.478010
0.468230
0.458460
0.448680
0.439880
0.411530
0.371460
0.348000
0.331380
0.319650
0.311830
0.305960
0.299120
0.293260
0.286410
0.280550
0.275660
0.270770
0.265880
0.261970
0.258060
0.255130
0.251220
0.249270
0.248290
0.246330
0.244380
0.242420
0.241450
0.240470
0.241450
0.243400
0.250240
0.260020
0.274680
0.291300
0.308900
0.332360
0.357770
0.386120
0.416420
0.446730
0.477030
0.505380
0.532750
0.559140
0.582600
0.604110
0.620720
0.634410
0.648090
0.659820
0.670580
0.678400
0.682310
0.684260
0.685240
0.683280
0.679370
0.673510
0.665690
0.655910
0.645160
0.633430
0.618770
0.603130
0.587490
0.571850
0.555230
0.538610
0.521990
0.506350
0.489740
0.476050
0.463340
0.449660
0.435970
0.422290
0.408600
0.395890
0.384160
0.371460
0.358750
0.348000
0.336270
0.327470
0.318670
0.308900
0.300100
0.290320
0.281520
0.272730
0.264910
0.258060
0.250240
0.243400
0.236560
0.229720
0.224830
0.219940
0.215050
0.209190
0.203320
0.197460
0.193550
0.188660
0.184750
0.180840
0.178890
0.176930
0.176930
0.178890
0.180840
0.186710
0.196480
0.210170
0.228740
0.252200
0.279570
0.307920
0.338220
0.368520
0.399800
0.425220
0.448680
0.474100
0.499510
0.522970
0.545450
0.565000
0.582600
0.595310
0.605080
0.611930
0.615840
0.616810
0.613880
0.610950
0.606060
0.601170
0.593350
0.584560
0.573800
0.561090
0.547410
0.531770
0.515150
0.497560
0.481920
0.467250
0.451610
0.435970
0.419350
0.402740
0.386120
0.370480
0.354840
0.339200
0.323560
0.308900
0.297170
0.286410
0.274680
0.262950
0.251220
0.240470
0.229720
0.220920
0.212120
0.203320
0.195500
0.186710
0.180840
0.176930
0.172040
0.167160
0.163250
0.159340
0.156400
0.151520
0.147610
0.142720
0.138810
0.136850
0.134900
0.133920
0.133920
0.132940
0.131960
0.130990
0.130010
0.130010
0.131960
0.137830
0.146630
0.160310
0.176930
0.196480
0.217010
0.242420
0.269790
0.299120
0.330400
0.362660
0.392960
0.422290
0.450640
0.476050
0.500490
0.521990
0.538610
0.551320
0.563050
0.573800
0.581620
0.587490
0.590420
0.590420
0.588470
0.584560
0.577710
0.569890
0.561090
0.551320
0.540570
0.526880
0.513200
0.497560
0.481920
0.466280
0.450640
0.434020
0.418380
0.403710
0.389050
0.376340
0.365590
0.352880
0.339200
0.326490
0.313780
0.302050
0.291300
0.281520
0.271750
0.262950
0.254150
0.247310
0.241450
0.234600
0.227760
0.220920
0.213100
0.207230
0.202350
0.197460
0.193550
0.189640
0.187680
0.185730
0.184750
0.213100
0.256110
0.276640
0.287390
0.293260
0.296190
0.299120
0.303030
0.307920
0.315740
0.325510
0.336270
0.349950
0.367550
0.389050
0.413490
0.439880
0.470190
0.500490
0.532750
0.564030
0.595310
0.624630
0.652000
0.673510
0.691100
0.708700
0.725320
0.740960
0.754640
0.766370
0.775170
0.782010
0.784950
0.785920
0.784950
0.781040
0.775170
0.768330
0.759530
0.749760
0.739000
0.726300
0.712610
0.698920
0.683280
0.668620
0.653960
0.639300
0.624630
0.611930
0.598240
0.583580
0.569890
0.556210
0.542520
0.529810
0.517110
0.504400
0.492670
0.480940
0.471160
0.463340
0.455520
0.447700
0.440860
0.433040
0.426200
0.420330
0.413490
0.407620
0.401760
0.395890
0.389050
0.385140
0.381230
0.378300
0.374390
0.371460
0.368520
0.365590
0.362660
0.360700
0.358750
0.356790
0.356790
0.357770
0.360700
0.365590
0.373410
0.384160
0.400780
0.420330
0.443790
0.469210
0.497560
0.526880
0.558160
0.588470
0.614860
0.637340
0.662760
0.688170
0.712610
0.733140
0.752690
0.768330
0.780060
0.790810
0.799610
0.806450
0.808410
0.808410
0.808410
0.806450
0.802540
0.797650
0.789830
0.781040
0.771260
0.760510
0.747800
0.734120
0.720430
0.706740
0.692080
0.676440
0.659820
0.644180
0.627570
0.611930
0.597260
0.581620
0.566960
0.553270
0.539590
0.527860
0.518080
0.506350
0.495600
0.484850
0.474100
0.465300
0.456500
0.448680
0.440860
0.435000
0.429130
0.424240
0.419350
0.414470
0.409580
0.404690
0.399800
0.395890
0.391980
0.388070
0.384160
0.381230
0.377320
0.373410
0.371460
0.370480
0.369500
0.368520
0.369500
0.372430
0.377320
0.386120
0.398830
0.415440
0.435000
0.458460
0.479960
0.501470
0.526880
0.554250
0.582600
0.609970
0.635390
0.660800
0.683280
0.704790
0.724340
0.740960
0.754640
0.764420
0.772240
0.779080
0.783970
0.786900
0.787880
0.787880
0.784950
0.781040
0.775170
0.767350
0.757580
0.746820
0.736070
0.723360
0.708700
0.694040
0.679370
0.664710
0.649070
0.633430
0.617790
0.603130
0.587490
0.571850
0.558160
0.546430
0.532750
0.520040
0.507330
0.494620
0.482890
0.472140
0.462370
0.452590
0.443790
0.435000
0.428150
0.422290
0.415440
0.409580
0.403710
0.397850
0.393940
0.389050
0.385140
0.381230
0.377320
0.373410
0.370480
0.369500
0.367550
0.364610
0.363640
0.361680
0.358750
0.356790
0.354840
0.354840
0.356790
0.360700
0.368520
0.377320
0.388070
0.402740
0.421310
0.443790
0.470190
0.497560
0.525900
0.540570
0.547410
0.564030
0.583580
0.604110
0.621700
0.635390
0.649070
0.662760
0.674490
0.683280
0.690130
0.695010
0.696970
0.696970
0.694040
0.690130
0.685240
0.678400
0.670580
0.660800
0.650050
0.638320
0.625610
0.611930
0.598240
0.583580
0.568910
0.553270
0.538610
0.525900
0.513200
0.499510
0.485830
0.473120
0.459430
0.445750
0.433040
0.420330
0.408600
0.397850
0.388070
0.379280
0.371460
0.363640
0.356790
0.349950
0.344090
0.337240
0.331380
0.326490
0.320630
0.315740
0.310850
0.305960
0.302050
0.300100
0.296190
0.293260
0.289350
0.286410
0.283480
0.282500
0.280550
0.279570
0.278590
0.277610
0.279570
0.281520
0.285430
0.290320
0.298140
0.309870
0.323560
0.342130
0.363640
0.388070
0.415440
0.444770
0.475070
0.500490
0.522970
0.548390
0.572830
0.596290
0.617790
0.636360
0.652980
0.666670
0.677420
0.685240
0.690130
0.692080
0.691100
0.689150
0.686220
0.681330
0.674490
0.665690
0.656890
0.646140
0.633430
0.620720
0.608020
0.595310
0.582600
0.568910
0.553270
0.536660
0.517110
0.499510
0.486800
0.473120
0.459430
0.445750
0.432060
0.419350
0.407620
0.396870
0.386120
0.374390
0.363640
0.351910
0.341150
0.332360
0.323560
0.315740
0.308900
0.301080
0.295210
0.290320
0.284460
0.278590
0.273700
0.268820
0.263930
0.259040
0.254150
0.250240
0.247310
0.243400
0.238510
0.235580
0.232650
0.229720
0.226780
0.223850
0.221900
0.221900
0.224830
0.230690
0.238510
0.250240
0.264910
0.279570
0.296190
0.315740
0.339200
0.364610
0.391980
0.420330
0.447700
0.475070
0.500490
0.523950
0.545450
0.565000
0.579670
0.591400
0.603130
0.611930
0.619750
0.624630
0.627570
0.627570
0.625610
0.620720
0.613880
0.606060
0.597260
0.587490
0.576740
0.564030
0.551320
0.537630
0.523950
0.509290
0.494620
0.479960
0.464320
0.448680
0.433040
0.419350
0.407620
0.393940
0.380250
0.367550
0.355820
0.344090
0.332360
0.321600
0.310850
0.300100
0.290320
0.282500
0.276640
0.270770
0.264910
0.259040
0.253180
0.248290
0.242420
0.237540
0.232650
0.228740
0.223850
0.218960
0.215050
0.213100
0.211140
0.209190
0.207230
0.206260
0.205280
0.204300
0.202350
0.202350
0.202350
0.204300
0.207230
0.212120
0.218960
0.227760
0.239490
0.254150
0.271750
0.293260
0.324540
0.355820
0.378300
0.404690
0.432060
0.455520
0.477030
0.500490
0.523950
0.545450
0.565000
0.581620
0.596290
0.607040
0.615840
0.621700
0.625610
0.627570
0.626590
0.637340
0.652000
0.656890
0.654940
0.648090
0.639300
0.627570
0.615840
0.602150
0.588470
0.574780
0.562070
0.551320
0.538610
0.525900
0.512220
0.498530
0.484850
0.472140
0.459430
0.446730
0.434020
0.422290
0.413490
0.405670
0.395890
0.386120
0.376340
0.365590
0.356790
0.348970
0.341150
0.334310
0.327470
0.321600
0.316720
0.312810
0.311830
0.309870
0.308900
0.307920
0.306940
0.306940
0.306940
0.307920
0.308900
0.309870
0.311830
0.312810
0.315740
0.319650
0.324540
0.331380
0.342130
0.355820
0.372430
0.392960
0.416420
0.442820
0.471160
0.497560
0.521990
0.549360
0.577710
0.606060
0.632450
0.657870
0.682310
0.704790
0.724340
0.741940
0.756600
0.768330
0.775170
0.779080
0.782990
0.784950
0.783970
0.782010
0.777130
0.771260
0.763440
0.753670
0.743890
0.732160
0.719450
0.706740
0.693060
0.678400
0.663730
0.648090
0.631480
0.615840
0.599220
0.583580
0.567940
0.553270
0.538610
0.526880
0.516130
0.504400
0.492670
0.481920
0.471160
0.460410
0.449660
0.438910
0.430110
0.421310
0.413490
0.407620
0.402740
0.397850
0.392960
0.388070
0.384160
0.380250
0.375370
0.370480
0.365590
0.360700
0.355820
0.350930
0.348000
0.346040
0.344090
0.342130
0.341150
0.342130
0.344090
0.348000
0.354840
0.365590
0.380250
0.398830
0.416420
0.436950
0.461390
0.489740
0.520040
0.550340
0.580650
0.609970
0.638320
0.664710
0.689150
0.710650
0.731180
0.745850
0.757580
0.770280
0.781040
0.790810
0.797650
0.801560
0.803520
0.802540
0.799610
0.794720
0.787880
0.780060
0.771260
0.761490
0.749760
0.737050
0.723360
0.708700
0.693060
0.676440
0.659820
0.642230
0.624630
0.608020
0.593350
0.579670
0.565980
0.552300
0.537630
0.524930
0.511240
0.498530
0.486800
0.476050
0.465300
0.455520
0.448680
0.441840
0.434020
0.427170
0.418380
0.411530
0.404690
0.397850
0.391980
0.386120
0.381230
0.377320
0.373410
0.371460
0.369500
0.366570
0.364610
0.361680
0.359730
0.357770
0.354840
0.352880
0.352880
0.353860
0.357770
0.363640
0.371460
0.384160
0.400780
0.422290
0.445750
0.472140
0.500490
0.530790
0.561090
0.590420
0.619750
0.646140
0.667640
0.686220
0.704790
0.722390
0.739000
0.753670
0.765400
0.774190
0.782010
0.787880
0.790810
0.791790
0.788860
0.784950
0.776150
0.768330
0.760510
0.750730
0.739000
0.725320
0.711630
0.697950
0.683280
0.667640
0.652000
0.637340
0.623660
0.609970
0.594330
0.579670
0.564030
0.549360
0.534700
0.508310
0.474100
0.451610
0.435000
0.422290
0.412510
0.402740
0.393940
0.386120
0.377320
0.369500
0.361680
0.353860
0.346040
0.339200
0.333330
0.327470
0.323560
0.321600
0.319650
0.317690
0.315740
0.313780
0.310850
0.305960
0.301080
0.298140
0.295210
0.293260
0.292280
0.292280
0.296190
0.299120
0.304010
0.316720
0.337240
0.359730
0.384160
0.411530
0.432060
0.453570
0.482890
0.511240
0.538610
0.565000
0.589440
0.612900
0.633430
0.651030
0.666670
0.680350
0.691100
0.699900
0.704790
0.707720
0.708700
0.708700
0.706740
0.702830
0.695990
0.688170
0.679370
0.667640
0.655910
0.643210
0.629520
0.616810
0.602150
0.586510
0.570870
0.554250
0.538610
0.521990
0.506350
0.491690
0.478010
0.464320
0.449660
0.437930
0.427170
0.415440
0.403710
0.391980
0.380250
0.370480
0.360700
0.351910
0.344090
0.337240
0.330400
0.324540
0.319650
0.314760
0.309870
0.304990
0.300100
0.295210
0.290320
0.286410
0.281520
0.277610
0.274680
0.271750
0.270770
0.269790
0.268820
0.267840
0.266860
0.267840
0.269790
0.273700
0.280550
0.289350
0.302050
0.317690
0.334310
0.352880
0.375370
0.400780
0.428150
0.456500
0.483870
0.511240
0.537630
0.562070
0.585530
0.607040
0.625610
0.639300
0.650050
0.660800
0.669600
0.676440
0.681330
0.682310
0.681330
0.679370
0.674490
0.666670
0.658850
0.650050
0.641250
0.629520
0.617790
0.605080
0.591400
0.577710
0.563050
0.548390
0.533720
0.519060
0.504400
0.488760
0.476050
0.464320
0.450640
0.436950
0.424240
0.411530
0.399800
0.389050
0.379280
0.369500
0.360700
0.352880
0.346040
0.340180
0.334310
0.328450
0.321600
0.315740
0.309870
0.305960
0.302050
0.299120
0.297170
0.294230
0.291300
0.290320
0.289350
0.287390
0.285430
0.283480
0.280550
0.278590
0.276640
0.274680
0.273700
0.273700
0.275660
0.279570
0.286410
0.295210
0.308900
0.325510
0.346040
0.371460
0.397850
0.426200
0.455520
0.483870
0.512220
0.537630
0.558160
0.575760
0.592380
0.608020
0.621700
0.633430
0.643210
0.650050
0.654940
0.657870
0.658850
0.657870
0.653960
0.649070
0.642230
0.633430
0.623660
0.611930
0.599220
0.584560
0.569890
0.555230
0.539590
0.522970
0.507330
0.492670
0.478980
0.464320
0.449660
0.434020
0.418380
0.402740
0.389050
0.375370
0.361680
0.348970
0.336270
0.325510
0.316720
0.307920
0.298140
0.289350
0.280550
0.271750
0.264910
0.257090
0.250240
0.243400
0.237540
0.232650
0.228740
0.225810
0.229720
0.235580
0.236560
0.234600
0.231670
0.227760
0.224830
0.221900
0.218960
0.217010
0.217010
0.217010
0.216030
0.216030
0.217010
0.220920
0.226780
0.236560
0.248290
0.263930
0.283480
0.306940
0.328450
0.350930
0.376340
0.403710
0.431090
0.459430
0.486800
0.513200
0.536660
0.559140
0.578690
0.595310
0.608990
0.618770
0.625610
0.631480
0.635390
0.637340
0.637340
0.634410
0.629520
0.622680
0.613880
0.604110
0.592380
0.581620
0.569890
0.557180
0.542520
0.527860
0.513200
0.498530
0.483870
0.469210
0.454550
0.439880
0.426200
0.412510
0.400780
0.391010
0.380250
0.367550
0.355820
0.345060
0.334310
0.324540
0.315740
0.306940
0.298140
0.291300
0.284460
0.279570
0.273700
0.268820
0.263930
0.258060
0.254150
0.249270
0.245360
0.241450
0.237540
0.234600
0.231670
0.230690
0.230690
0.229720
0.227760
0.226780
0.226780
0.226780
0.227760
0.228740
0.231670
0.236560
0.244380
0.255130
0.267840
0.284460
0.305960
0.331380
0.358750
0.387100
0.417400
0.447700
0.478010
0.506350
0.533720
0.560120
0.580650
0.599220
0.617790
0.635390
0.651030
0.665690
0.677420
0.687190
0.695990
0.701860
0.705770
0.707720
0.706740
0.703810
0.698920
0.691100
0.682310
0.672530
0.660800
0.648090
0.634410
0.620720
0.607040
0.593350
0.579670
0.567940
0.556210
0.543500
0.530790
0.517110
0.505380
0.492670
0.480940
0.470190
0.460410
0.450640
0.440860
0.433040
0.426200
0.419350
0.412510
0.404690
0.397850
0.390030
0.383190
0.376340
0.369500
0.362660
0.356790
0.350930
0.347020
0.344090
0.340180
0.336270
0.332360
0.328450
0.325510
0.322580
0.320630
0.319650
0.320630
0.324540
0.330400
0.339200
0.351910
0.368520
0.389050
0.413490
0.439880
0.469210
0.499510
0.530790
0.561090
0.589440
0.616810
0.639300
0.657870
0.677420
0.696970
0.714570
0.730210
0.744870
0.756600
0.766370
0.774190
0.778100
0.780060
0.779080
0.776150
0.771260
0.765400
0.757580
0.748780
0.737050
0.724340
0.710650
0.695990
0.680350
0.665690
0.650050
0.636360
0.622680
0.608020
0.592380
0.577710
0.562070
0.546430
0.530790
0.516130
0.501470
0.487780
0.475070
0.464320
0.454550
0.444770
0.435970
0.427170
0.419350
0.411530
0.405670
0.399800
0.393940
0.387100
0.381230
0.376340
0.371460
0.366570
0.361680
0.355820
0.351910
0.348000
0.344090
0.342130
0.339200
0.336270
0.334310
0.333330
0.334310
0.336270
0.339200
0.345060
0.354840
0.368520
0.386120
0.407620
0.432060
0.458460
0.486800
0.514170
0.537630
0.559140
0.582600
0.605080
0.627570
0.650050
0.669600
0.687190
0.702830
0.716520
0.726300
0.735090
0.740960
0.743890
0.743890
0.744870
0.743890
0.741940
0.739000
0.733140
0.726300
0.717500
0.707720
0.695990
0.683280
0.670580
0.658850
0.646140
0.632450
0.617790
0.603130
0.588470
0.572830
0.558160
0.542520
0.528840
0.516130
0.504400
0.494620
0.485830
0.476050
0.466280
0.456500
0.446730
0.436950
0.429130
0.421310
0.414470
0.408600
0.402740
0.399800
0.395890
0.391980
0.388070
0.384160
0.380250
0.377320
0.373410
0.370480
0.367550
0.364610
0.361680
0.359730
0.357770
0.357770
0.357770
0.357770
0.358750
0.360700
0.363640
0.368520
0.377320
0.389050
0.405670
0.424240
0.442820
0.461390
0.484850
0.509290
0.534700
0.559140
0.582600
0.606060
0.628540
0.649070
0.667640
0.683280
0.696970
0.706740
0.713590
0.719450
0.724340
0.726300
0.727270
0.726300
0.724340
0.719450
0.714570
0.706740
0.698920
0.689150
0.679370
0.668620
0.655910
0.643210
0.630500
0.616810
0.602150
0.588470
0.573800
0.559140
0.544480
0.530790
0.518080
0.506350
0.495600
0.483870
0.473120
0.463340
0.453570
0.444770
0.435970
0.428150
0.420330
0.411530
0.405670
0.399800
0.393940
0.388070
0.382210
0.376340
0.370480
0.365590
0.361680
0.357770
0.354840
0.351910
0.348970
0.347020
0.344090
0.341150
0.337240
0.334310
0.332360
0.330400
0.330400
0.330400
0.332360
0.336270
0.343110
0.350930
0.360700
0.373410
0.390030
0.410560
0.433040
0.457480
0.482890
0.509290
0.534700
0.559140
0.582600
0.603130
0.618770
0.631480
0.645160
0.656890
0.668620
0.677420
0.685240
0.691100
0.694040
0.695010
0.694040
0.691100
0.686220
0.680350
0.672530
0.662760
0.652980
0.641250
0.628540
0.615840
0.603130
0.589440
0.575760
0.562070
0.547410
0.535680
0.523950
0.511240
0.498530
0.485830
0.473120
0.461390
0.450640
0.438910
0.429130
0.419350
0.409580
0.401760
0.395890
0.389050
0.382210
0.374390
0.368520
0.362660
0.357770
0.352880
0.348970
0.344090
0.339200
0.335290
0.332360
0.329420
0.326490
0.323560
0.320630
0.317690
0.315740
0.313780
0.311830
0.309870
0.308900
0.307920
0.306940
0.308900
0.311830
0.317690
0.325510
0.336270
0.349950
0.367550
0.389050
0.412510
0.437930
0.463340
0.486800
0.507330
0.530790
0.554250
0.577710
0.598240
0.617790
0.634410
0.648090
0.659820
0.668620
0.675460
0.679370
0.681330
0.680350
0.679370
0.674490
0.667640
0.659820
0.652980
0.645160
0.634410
0.622680
0.609970
0.595310
0.582600
0.568910
0.553270
0.537630
0.521020
0.505380
0.489740
0.473120
0.457480
0.441840
0.426200
0.411530
0.397850
0.387100
0.377320
0.366570
0.356790
0.346040
0.335290
0.324540
0.314760
0.304010
0.294230
0.284460
0.275660
0.268820
0.264910
0.259040
0.253180
0.247310
0.242420
0.236560
0.231670
0.226780
0.222870
0.218960
0.215050
0.212120
0.209190
0.208210
0.205280
0.203320
0.201370
0.201370
0.203320
0.207230
0.213100
0.222870
0.236560
0.254150
0.271750
0.292280
0.315740
0.342130
0.370480
0.399800
0.428150
0.455520
0.481920
0.507330
0.530790
0.551320
0.570870
0.585530
0.597260
0.608020
0.616810
0.622680
0.626590
0.627570
0.626590
0.622680
0.616810
0.608020
0.599220
0.589440
0.578690
0.565980
0.553270
0.539590
0.524930
0.509290
0.493650
0.478010
0.463340
0.448680
0.434020
0.419350
0.405670
0.393940
0.381230
0.367550
0.354840
0.342130
0.330400
0.318670
0.307920
0.298140
0.288370
0.278590
0.271750
0.265880
0.260020
0.253180
0.247310
0.241450
0.236560
0.231670
0.226780
0.222870
0.218960
0.216030
0.212120
0.209190
0.208210
0.204300
0.201370
0.198440
0.195500
0.193550
0.191590
0.189640
0.189640
0.190620
0.193550
0.198440
0.205280
0.215050
0.227760
0.243400
0.261970
0.283480
0.308900
0.336270
0.364610
0.394920
0.426200
0.455520
0.480940
0.502440
0.524930
0.546430
0.565980
0.583580
0.599220
0.611930
0.621700
0.627570
0.631480
0.632450
0.630500
0.626590
0.621700
0.615840
0.608990
0.600200
0.590420
0.579670
0.568910
0.556210
0.544480
0.530790
0.517110
0.505380
0.492670
0.478980
0.465300
0.450640
0.435970
0.422290
0.408600
0.395890
0.384160
0.372430
0.362660
0.354840
0.348000
0.341150
0.333330
0.327470
0.321600
0.315740
0.310850
0.306940
0.303030
0.300100
0.298140
0.297170
0.297170
0.297170
0.297170
0.297170
0.297170
0.297170
0.296190
0.295210
0.295210
0.295210
0.295210
0.295210
0.295210
0.298140
0.303030
0.309870
0.319650
0.333330
0.349950
0.370480
0.394920
0.421310
0.449660
0.478010
0.503420
0.526880
0.553270
0.578690
0.604110
0.627570
0.650050
0.669600
0.687190
0.701860
0.713590
0.723360
0.730210
0.734120
0.736070
0.736070
0.736070
0.733140
0.729230
0.723360
0.715540
0.705770
0.695010
0.683280
0.669600
0.656890
0.643210
0.628540
0.612900
0.596290
0.579670
0.563050
0.545450
0.528840
0.512220
0.505380
0.504400
0.497560
0.490710
0.482890
0.474100
0.464320
0.453570
0.442820
0.432060
0.421310
0.411530
0.402740
0.394920
0.388070
0.383190
0.380250
0.376340
0.372430
0.368520
0.365590
0.361680
0.357770
0.353860
0.349950
0.347020
0.343110
0.339200
0.337240
0.336270
0.334310
0.332360
0.331380
0.333330
0.337240
0.344090
0.355820
0.371460
0.390030
0.412510
0.433040
0.454550
0.478980
0.506350
0.533720
0.561090
0.588470
0.613880
0.637340
0.659820
0.680350
0.697950
0.713590
0.725320
0.733140
0.739980
0.745850
0.749760
0.752690
0.753670
0.752690
0.749760
0.744870
0.738030
0.729230
0.719450
0.708700
0.697950
0.685240
0.673510
0.660800
0.647120
0.634410
0.619750
0.606060
0.591400
0.575760
0.560120
0.546430
0.533720
0.519060
0.505380
0.492670
0.479960
0.468230
0.457480
0.448680
0.440860
0.433040
0.426200
0.420330
0.414470
0.407620
0.401760
0.394920
0.389050
0.384160
0.378300
0.374390
0.370480
0.366570
0.363640
0.360700
0.357770
0.355820
0.351910
0.348970
0.346040
0.344090
0.342130
0.341150
0.342130
0.345060
0.350930
0.358750
0.368520
0.380250
0.395890
0.414470
0.436950
0.461390
0.487780
0.515150
0.543500
0.569890
0.596290
0.620720
0.642230
0.658850
0.672530
0.686220
0.698920
0.710650
0.721410
0.730210
0.737050
0.740960
0.742910
0.741940
0.739000
0.734120
0.728250
0.719450
0.710650
0.700880
0.690130
0.678400
0.665690
0.652980
0.639300
0.624630
0.609970
0.596290
0.583580
0.569890
0.555230
0.541540
0.526880
0.513200
0.499510
0.485830
0.474100
0.463340
0.452590
0.442820
0.435000
0.428150
0.420330
0.412510
0.404690
0.396870
0.389050
0.382210
0.376340
0.370480
0.365590
0.361680
0.359730
0.357770
0.355820
0.353860
0.351910
0.349950
0.348000
0.345060
0.343110
0.340180
0.338220
0.336270
0.334310
0.334310
0.336270
0.340180
0.347020
0.357770
0.371460
0.388070
0.407620
0.430110
0.454550
0.480940
0.507330
0.530790
0.552300
0.575760
0.599220
0.621700
0.642230
0.659820
0.674490
0.687190
0.697950
0.706740
0.713590
0.718480
0.720430
0.720430
0.720430
0.717500
0.713590
0.707720
0.699900
0.690130
0.679370
0.667640
0.655910
0.643210
0.630500
0.618770
0.605080
0.590420
0.575760
0.560120
0.545450
0.530790
0.516130
0.502440
0.489740
0.477030
0.465300
0.456500
0.446730
0.437930
0.428150
0.418380
0.409580
0.400780
0.392960
0.385140
0.378300
0.372430
0.366570
0.362660
0.359730
0.355820
0.351910
0.328450
0.294230
0.274680
0.262950
0.254150
0.249270
0.245360
0.242420
0.240470
0.239490
0.238510
0.237540
0.236560
0.236560
0.238510
0.243400
0.251220
0.263930
0.280550
0.301080
0.324540
0.348000
0.371460
0.398830
0.429130
0.459430
0.488760
0.518080
0.545450
0.570870
0.594330
0.615840
0.635390
0.652980
0.664710
0.673510
0.681330
0.687190
0.690130
0.692080
0.691100
0.687190
0.682310
0.674490
0.665690
0.653960
0.643210
0.631480
0.617790
0.603130
0.587490
0.570870
0.554250
0.537630
0.520040
0.502440
0.483870
0.466280
0.447700
0.433040
0.419350
0.405670
0.391010
0.378300
0.366570
0.355820
0.345060
0.335290
0.326490
0.318670
0.310850
0.304010
0.298140
0.291300
0.284460
0.277610
0.270770
0.264910
0.259040
0.254150
0.249270
0.245360
0.242420
0.239490
0.237540
0.236560
0.234600
0.232650
0.229720
0.227760
0.225810
0.224830
0.224830
0.226780
0.230690
0.237540
0.246330
0.258060
0.275660
0.297170
0.322580
0.352880
0.384160
0.416420
0.448680
0.479960
0.510260
0.539590
0.566960
0.588470
0.606060
0.624630
0.641250
0.656890
0.669600
0.679370
0.686220
0.690130
0.691100
0.689150
0.686220
0.680350
0.673510
0.664710
0.654940
0.644180
0.630500
0.616810
0.601170
0.584560
0.567940
0.550340
0.533720
0.518080
0.503420
0.486800
0.470190
0.452590
0.435000
0.418380
0.400780
0.384160
0.368520
0.353860
0.340180
0.327470
0.317690
0.308900
0.301080
0.293260
0.284460
0.276640
0.268820
0.259040
0.250240
0.241450
0.232650
0.224830
0.218960
0.215050
0.211140
0.207230
0.202350
0.198440
0.193550
0.189640
0.184750
0.180840
0.176930
0.174000
0.172040
0.171070
0.173020
0.174980
0.179860
0.186710
0.196480
0.211140
0.228740
0.250240
0.274680
0.303030
0.334310
0.361680
0.388070
0.417400
0.445750
0.474100
0.500490
0.524930
0.547410
0.566960
0.585530
0.600200
0.611930
0.620720
0.625610
0.627570
0.627570
0.625610
0.621700
0.616810
0.608990
0.600200
0.590420
0.578690
0.565000
0.550340
0.536660
0.523950
0.508310
0.491690
0.474100
0.457480
0.439880
0.422290
0.404690
0.388070
0.372430
0.355820
0.341150
0.328450
0.317690
0.304990
0.292280
0.279570
0.266860
0.256110
0.246330
0.236560
0.227760
0.218960
0.212120
0.208210
0.205280
0.200390
0.195500
0.189640
0.184750
0.179860
0.174980
0.170090
0.167160
0.164220
0.161290
0.159340
0.158360
0.159340
0.158360
0.158360
0.158360
0.159340
0.160310
0.163250
0.169110
0.176930
0.210170
0.258060
0.289350
0.314760
0.339200
0.366570
0.394920
0.425220
0.455520
0.485830
0.514170
0.542520
0.568910
0.592380
0.612900
0.629520
0.641250
0.653960
0.664710
0.673510
0.681330
0.686220
0.688170
0.689150
0.686220
0.681330
0.673510
0.664710
0.654940
0.644180
0.631480
0.618770
0.606060
0.593350
0.579670
0.565980
0.552300
0.538610
0.523950
0.509290
0.496580
0.484850
0.472140
0.458460
0.444770
0.431090
0.418380
0.406650
0.395890
0.385140
0.376340
0.367550
0.361680
0.356790
0.349950
0.344090
0.339200
0.334310
0.330400
0.326490
0.324540
0.322580
0.321600
0.321600
0.321600
0.323560
0.325510
0.327470
0.328450
0.329420
0.331380
0.332360
0.334310
0.337240
0.342130
0.348970
0.357770
0.368520
0.382210
0.400780
0.423260
0.448680
0.477030
0.507330
0.538610
0.569890
0.599220
0.626590
0.653960
0.675460
0.695010
0.714570
0.733140
0.749760
0.764420
0.776150
0.784950
0.791790
0.795700
0.797650
0.796680
0.793740
0.788860
0.782010
0.774190
0.764420
0.754640
0.742910
0.730210
0.716520
0.701860
0.686220
0.669600
0.652980
0.638320
0.622680
0.607040
0.591400
0.575760
0.561090
0.545450
0.530790
0.517110
0.504400
0.491690
0.479960
0.468230
0.458460
0.450640
0.440860
0.432060
0.422290
0.413490
0.404690
0.396870
0.390030
0.383190
0.377320
0.372430
0.368520
0.364610
0.360700
0.356790
0.351910
0.347020
0.342130
0.338220
0.336270
0.334310
0.334310
0.334310
0.335290
0.338220
0.342130
0.348000
0.356790
0.370480
0.389050
0.411530
0.436950
0.466280
0.496580
0.527860
0.559140
0.586510
0.609970
0.635390
0.659820
0.683280
0.705770
0.725320
0.741940
0.756600
0.769310
0.779080
0.786900
0.791790
0.792770
0.790810
0.788860
0.784950
0.779080
0.772240
0.763440
0.752690
0.740960
0.728250
0.713590
0.698920
0.684260
0.670580
0.654940
0.639300
0.623660
0.608020
0.593350
0.576740
0.562070
0.547410
0.531770
0.518080
0.504400
0.493650
0.483870
0.473120
0.462370
0.452590
0.442820
0.434020
0.425220
0.418380
0.411530
0.404690
0.398830
0.393940
0.390030
0.384160
0.379280
0.374390
0.369500
0.364610
0.360700
0.356790
0.352880
0.349950
0.347020
0.344090
0.342130
0.341150
0.341150
0.343110
0.347020
0.354840
0.365590
0.380250
0.397850
0.418380
0.442820
0.469210
0.493650
0.517110
0.544480
0.573800
0.602150
0.630500
0.656890
0.682310
0.705770
0.725320
0.742910
0.757580
0.768330
0.776150
0.780060
0.782990
0.783970
0.771260
0.751710
0.738030
0.728250
0.718480
0.708700
0.696970
0.684260
0.672530
0.659820
0.646140
0.630500
0.614860
0.599220
0.583580
0.567940
0.551320
0.535680
0.521020
0.506350
0.492670
0.481920
0.471160
0.459430
0.447700
0.435970
0.424240
0.413490
0.403710
0.393940
0.385140
0.377320
0.370480
0.364610
0.360700
0.354840
0.348970
0.343110
0.338220
0.333330
0.330400
0.327470
0.324540
0.321600
0.318670
0.315740
0.314760
0.312810
0.311830
0.308900
0.306940
0.305960
0.305960
0.308900
0.314760
0.323560
0.336270
0.352880
0.370480
0.389050
0.412510
0.437930
0.466280
0.494620
0.522970
0.551320
0.577710
0.604110
0.628540
0.650050
0.666670
0.679370
0.691100
0.701860
0.710650
0.717500
0.722390
0.725320
0.726300
0.725320
0.721410
0.715540
0.708700
0.699900
0.690130
0.679370
0.666670
0.653960
0.639300
0.623660
0.608020
0.592380
0.575760
0.560120
0.544480
0.529810
0.517110
0.503420
0.489740
0.476050
0.462370
0.448680
0.435970
0.424240
0.412510
0.401760
0.391980
0.382210
0.375370
0.369500
0.363640
0.357770
0.350930
0.344090
0.337240
0.331380
0.325510
0.320630
0.315740
0.311830
0.308900
0.307920
0.304990
0.303030
0.300100
0.297170
0.294230
0.291300
0.289350
0.288370
0.287390
0.288370
0.292280
0.298140
0.305960
0.317690
0.333330
0.352880
0.376340
0.401760
0.429130
0.458460
0.487780
0.517110
0.544480
0.567940
0.588470
0.609970
0.630500
0.648090
0.664710
0.677420
0.688170
0.695990
0.700880
0.703810
0.703810
0.701860
0.696970
0.692080
0.685240
0.677420
0.667640
0.656890
0.644180
0.630500
0.615840
0.599220
0.582600
0.565980
0.550340
0.534700
0.518080
0.500490
0.483870
0.467250
0.450640
0.435000
0.419350
0.404690
0.391010
0.377320
0.364610
0.354840
0.346040
0.336270
0.326490
0.316720
0.306940
0.298140
0.290320
0.281520
0.273700
0.265880
0.259040
0.254150
0.252200
0.249270
0.245360
0.242420
0.238510
0.233630
0.228740
0.224830
0.219940
0.216030
0.213100
0.211140
0.210170
0.211140
0.212120
0.214080
0.217010
0.223850
0.233630
0.247310
0.263930
0.284460
0.306940
0.333330
0.356790
0.380250
0.406650
0.434020
0.460410
0.485830
0.510260
0.533720
0.554250
0.572830
0.589440
0.603130
0.613880
0.620720
0.623660
0.625610
0.624630
0.622680
0.617790
0.611930
0.603130
0.594330
0.584560
0.572830
0.560120
0.548390
0.536660
0.522970
0.507330
0.491690
0.475070
0.459430
0.443790
0.428150
0.412510
0.397850
0.391980
0.391010
0.386120
0.380250
0.371460
0.361680
0.352880
0.343110
0.334310
0.326490
0.317690
0.307920
0.300100
0.292280
0.287390
0.283480
0.279570
0.274680
0.269790
0.265880
0.261970
0.258060
0.256110
0.254150
0.253180
0.251220
0.248290
0.246330
0.245360
0.243400
0.240470
0.237540
0.234600
0.233630
0.233630
0.235580
0.240470
0.248290
0.260020
0.272730
0.288370
0.306940
0.329420
0.355820
0.383190
0.411530
0.439880
0.467250
0.494620
0.519060
0.542520
0.561090
0.575760
0.591400
0.605080
0.617790
0.628540
0.636360
0.642230
0.646140
0.647120
0.645160
0.642230
0.636360
0.629520
0.621700
0.611930
0.601170
0.590420
0.578690
0.566960
0.554250
0.541540
0.527860
0.514170
0.499510
0.486800
0.475070
0.463340
0.450640
0.438910
0.427170
0.415440
0.403710
0.392960
0.383190
0.372430
0.363640
0.353860
0.346040
0.340180
0.333330
0.327470
0.321600
0.317690
0.313780
0.309870
0.306940
0.303030
0.298140
0.287390
0.274680
0.255130
0.221900
0.174980
0.118280
0.065494
0.032258
0.015640
0.007820
0.003910
0.001955
0.000978
0.000000
0.000000
0.000000
0.000000
0.000000
0.000000
0.000000
0.000000
0.000000
0.000000
0.000000
0.000000
0.003910
0.011730
0.019550
0.024438
0.030303
0.040078
0.054741
0.075269
0.097752
0.117300
0.129030
0.129030
0.117300
0.096774
0.076246
0.058651
0.039101
0.024438
0.012708
0.005865
0.002933
0.000978
0.000000
0.000000
0.000000
0.000000
0.000000
0.000000
0.000000
0.000000
0.000000
0.000000
0.001955
0.013685
0.032258
0.051808
0.069404
0.086022
0.102640
0.117300
0.131960
0.143700
0.150540
0.151520
0.146630
0.135870
0.121210
0.106550
0.093842
0.086999
0.086022
0.090909
0.098729
0.110460
0.124140
0.137830
0.150540
0.161290
0.169110
0.172040
0.170090
0.163250
0.152490
0.140760
0.131960
0.126100
0.122190
0.120230
0.124140
0.132940
0.146630
0.164220
0.185730
0.210170
0.237540
0.266860
0.294230
0.320630
0.349950
0.379280
0.407620
0.433040
0.453570
0.468230
0.478980
0.484850
0.487780
0.490710
0.493650
0.497560
0.501470
0.507330
0.512220
0.515150
0.517110
0.517110
0.515150
0.511240
0.507330
0.502440
0.497560
0.492670
0.487780
0.479960
0.470190
0.456500
0.440860
0.423260
0.405670
0.389050
0.375370
0.366570
0.360700
0.357770
0.356790
0.355820
0.353860
0.349950
0.345060
0.341150
0.337240
0.335290
0.333330
0.331380
0.328450
0.324540
0.321600
0.319650
0.316720
0.313780
0.309870
0.368520
0.458460
0.499510
0.515150
0.518080
0.515150
0.510260
0.508310
0.509290
0.513200
0.521990
0.535680
0.551320
0.570870
0.591400
0.615840
0.643210
0.674490
0.708700
0.745850
0.777130
0.803520
0.828930
0.850440
0.866080
0.875860
0.883680
0.888560
0.894430
0.900290
0.907140
0.912020
0.914960
0.914960
0.913000
0.908110
0.900290
0.889540
0.876830
0.862170
0.846530
0.828930
0.807430
0.781040
0.746820
0.712610
0.677420
0.636360
0.597260
0.566960
0.554250
0.561090
0.587490
0.628540
0.678400
0.730210
0.776150
0.810360
0.833820
0.851420
0.861190
0.865100
0.863150
0.855330
0.843600
0.826000
0.804500
0.777130
0.744870
0.707720
0.672530
0.636360
0.593350
0.548390
0.504400
0.467250
0.439880
0.426200
0.424240
0.435970
0.457480
0.487780
0.517110
0.547410
0.582600
0.619750
0.656890
0.693060
0.728250
0.760510
0.790810
0.818180
0.844570
0.869990
0.893450
0.913980
0.931570
0.953080
0.973610
0.987290
0.993160
0.997070
0.999020
0.999020
1.000000
1.000000
1.000000
1.000000
1.000000
1.000000
1.000000
1.000000
1.000000
1.000000
1.000000
1.000000
1.000000
1.000000
1.000000
1.000000
1.000000
1.000000
1.000000
1.000000
1.000000
1.000000
1.000000
1.000000
1.000000
1.000000
1.000000
1.000000
1.000000
1.000000
1.000000
1.000000
1.000000
0.997070
0.990220
0.979470
0.967740
0.956010
0.944280
0.933530
0.922780
0.912020
0.903230
0.893450
0.884650
0.876830
0.868040
0.859240
0.850440
0.842620
0.833820
0.826000
0.818180
0.811340
0.804500
0.798630
0.791790
0.785920
0.779080
0.774190
0.768330
0.764420
0.759530
0.756600
0.753670
0.752690
0.752690
0.753670
0.757580
0.762460
0.770280
0.779080
0.790810
0.802540
0.815250
0.827960
0.840660
0.852390
0.862170
0.869010
0.877810
0.885630
0.893450
0.899320
0.904200
0.908110
0.911050
0.913000
0.913000
0.912020
0.910070
0.906160
0.902250
0.897360
0.891500
0.885630
0.877810
0.869990
0.862170
0.852390
0.843600
0.833820
0.824050
0.815250
0.806450
0.796680
0.786900
0.777130
0.767350
0.758550
0.749760
0.740960
0.733140
0.725320
0.717500
0.710650
0.703810
0.697950
0.692080
0.686220
0.680350
0.674490
0.669600
0.664710
0.659820
0.654940
0.650050
0.646140
0.642230
0.639300
0.636360
0.633430
0.630500
0.627570
0.624630
0.621700
0.618770
0.616810
0.613880
0.610950
0.609970
0.608020
0.607040
0.607040
0.608020
0.609970
0.613880
0.619750
0.627570
0.637340
0.649070
0.662760
0.607040
0.515150
0.473120
0.455520
0.450640
0.452590
0.456500
0.461390
0.466280
0.471160
0.474100
0.478010
0.479960
0.481920
0.482890
0.482890
0.482890
0.482890
0.480940
0.478980
0.477030
0.474100
0.471160
0.467250
0.462370
0.457480
0.452590
0.447700
0.442820
0.436950
0.432060
0.426200
0.421310
0.416420
0.411530
0.406650
0.401760
0.396870
0.392960
0.389050
0.385140
0.381230
0.377320
0.373410
0.369500
0.366570
0.362660
0.359730
0.356790
0.353860
0.351910
0.349950
0.348000
0.347020
0.345060
0.343110
0.341150
0.339200
0.337240
0.336270
0.334310
0.332360
0.331380
0.330400
0.329420
0.328450
0.327470
0.326490
0.326490
0.325510
0.326490
0.327470
0.328450
0.331380
0.335290
0.339200
0.345060
0.349950
0.357770
0.365590
0.374390
0.383190
0.391980
0.400780
0.408600
0.416420
0.423260
0.430110
0.435000
0.438910
0.442820
0.445750
0.448680
0.450640
0.452590
0.452590
0.452590
0.451610
0.449660
0.447700
0.444770
0.441840
0.438910
0.435970
0.432060
0.428150
0.424240
0.419350
0.415440
0.410560
0.405670
0.400780
0.395890
0.391980
0.388070
0.384160
0.379280
0.375370
0.371460
0.367550
0.364610
0.360700
0.357770
0.354840
0.351910
0.348970
0.347020
0.345060
0.343110
0.342130
0.340180
0.338220
0.336270
0.334310
0.332360
0.330400
0.329420
0.327470
0.327470
0.326490
0.326490
0.325510
0.324540
0.323560
0.323560
0.322580
0.322580
0.321600
0.322580
0.323560
0.325510
0.327470
0.331380
0.336270
0.341150
0.348000
0.355820
0.363640
0.372430
0.381230
0.390030
0.398830
0.407620
0.415440
0.421310
0.428150
0.435000
0.440860
0.446730
0.451610
0.455520
0.459430
0.462370
0.464320
0.466280
0.467250
0.467250
0.466280
0.465300
0.463340
0.461390
0.458460
0.455520
0.451610
0.447700
0.443790
0.438910
0.435000
0.431090
0.427170
0.422290
0.418380
0.413490
0.409580
0.405670
0.401760
0.397850
0.394920
0.391010
0.388070
0.384160
0.381230
0.379280
0.376340
0.373410
0.370480
0.368520
0.365590
0.363640
0.361680
0.359730
0.357770
0.355820
0.354840
0.353860
0.352880
0.351910
0.349950
0.348970
0.347020
0.346040
0.345060
0.344090
0.344090
0.344090
0.345060
0.346040
0.348000
0.350930
0.354840
0.359730
0.366570
0.374390
0.383190
0.391980
0.401760
0.410560
0.419350
0.427170
0.433040
0.439880
0.446730
0.453570
0.459430
0.464320
0.469210
0.473120
0.476050
0.478010
0.479960
0.480940
0.479960
0.479960
0.478980
0.477030
0.475070
0.531770
0.615840
0.652000
0.664710
0.663730
0.655910
0.644180
0.631480
0.617790
0.603130
0.586510
0.570870
0.554250
0.539590
0.523950
0.510260
0.496580
0.484850
0.473120
0.463340
0.455520
0.445750
0.436950
0.427170
0.418380
0.409580
0.400780
0.391980
0.383190
0.374390
0.366570
0.359730
0.355820
0.352880
0.349950
0.347020
0.344090
0.340180
0.336270
0.331380
0.327470
0.323560
0.319650
0.316720
0.314760
0.314760
0.315740
0.318670
0.324540
0.333330
0.346040
0.361680
0.381230
0.402740
0.427170
0.453570
0.479960
0.503420
0.525900
0.550340
0.574780
0.599220
0.621700
0.642230
0.660800
0.676440
0.691100
0.702830
0.712610
0.718480
0.721410
0.724340
0.726300
0.725320
0.723360
0.719450
0.712610
0.704790
0.695990
0.685240
0.674490
0.661780
0.650050
0.639300
0.626590
0.612900
0.599220
0.584560
0.569890
0.554250
0.538610
0.523950
0.509290
0.494620
0.482890
0.472140
0.462370
0.451610
0.440860
0.431090
0.422290
0.412510
0.404690
0.396870
0.391010
0.384160
0.378300
0.374390
0.369500
0.363640
0.357770
0.351910
0.347020
0.342130
0.337240
0.333330
0.328450
0.325510
0.323560
0.322580
0.321600
0.320630
0.318670
0.317690
0.316720
0.317690
0.321600
0.328450
0.339200
0.353860
0.371460
0.392960
0.413490
0.434020
0.458460
0.484850
0.512220
0.539590
0.565000
0.589440
0.612900
0.633430
0.652000
0.667640
0.678400
0.686220
0.694040
0.699900
0.705770
0.710650
0.713590
0.713590
0.712610
0.707720
0.701860
0.694040
0.684260
0.674490
0.663730
0.652000
0.639300
0.625610
0.610950
0.596290
0.582600
0.566960
0.552300
0.536660
0.522970
0.511240
0.500490
0.489740
0.478010
0.467250
0.456500
0.445750
0.435000
0.426200
0.416420
0.407620
0.398830
0.392960
0.388070
0.382210
0.376340
0.370480
0.364610
0.358750
0.353860
0.348970
0.344090
0.340180
0.337240
0.333330
0.331380
0.329420
0.327470
0.325510
0.323560
0.321600
0.320630
0.318670
0.318670
0.319650
0.323560
0.328450
0.336270
0.347020
0.360700
0.378300
0.398830
0.422290
0.448680
0.476050
0.503420
0.530790
0.557180
0.581620
0.604110
0.621700
0.636360
0.651030
0.664710
0.676440
0.686220
0.695010
0.700880
0.704790
0.706740
0.706740
0.704790
0.700880
0.695010
0.688170
0.679370
0.669600
0.658850
0.647120
0.634410
0.621700
0.608020
0.594330
0.580650
0.566960
0.554250
0.542520
0.529810
0.516130
0.503420
0.490710
0.478980
0.468230
0.457480
0.446730
0.436950
0.428150
0.409580
0.386120
0.368520
0.355820
0.346040
0.338220
0.330400
0.323560
0.316720
0.309870
0.304990
0.300100
0.296190
0.293260
0.292280
0.289350
0.284460
0.280550
0.276640
0.271750
0.268820
0.266860
0.264910
0.262950
0.262950
0.262950
0.264910
0.267840
0.272730
0.282500
0.297170
0.314760
0.338220
0.363640
0.392960
0.423260
0.454550
0.486800
0.513200
0.535680
0.560120
0.584560
0.608020
0.629520
0.648090
0.664710
0.678400
0.688170
0.695990
0.699900
0.701860
0.700880
0.699900
0.695990
0.691100
0.683280
0.673510
0.661780
0.648090
0.633430
0.617790
0.601170
0.584560
0.569890
0.555230
0.538610
0.521020
0.503420
0.485830
0.469210
0.452590
0.436950
0.421310
0.404690
0.389050
0.376340
0.365590
0.353860
0.342130
0.329420
0.317690
0.305960
0.295210
0.284460
0.275660
0.267840
0.261000
0.253180
0.248290
0.243400
0.238510
0.231670
0.225810
0.219940
0.215050
0.210170
0.206260
0.202350
0.198440
0.195500
0.193550
0.192570
0.190620
0.188660
0.185730
0.183770
0.181820
0.183770
0.187680
0.196480
0.208210
0.224830
0.245360
0.266860
0.289350
0.316720
0.346040
0.377320
0.408600
0.438910
0.467250
0.493650
0.518080
0.539590
0.559140
0.572830
0.583580
0.593350
0.602150
0.608020
0.611930
0.612900
0.611930
0.608990
0.605080
0.598240
0.589440
0.579670
0.569890
0.558160
0.545450
0.529810
0.513200
0.495600
0.478980
0.462370
0.445750
0.430110
0.415440
0.400780
0.388070
0.377320
0.365590
0.352880
0.341150
0.328450
0.315740
0.304990
0.293260
0.281520
0.270770
0.261000
0.253180
0.246330
0.240470
0.233630
0.226780
0.220920
0.215050
0.209190
0.204300
0.200390
0.195500
0.190620
0.185730
0.182800
0.180840
0.178890
0.176930
0.175950
0.174000
0.173020
0.172040
0.171070
0.171070
0.172040
0.174000
0.176930
0.182800
0.190620
0.201370
0.217010
0.234600
0.257090
0.283480
0.311830
0.343110
0.375370
0.406650
0.437930
0.464320
0.486800
0.511240
0.533720
0.554250
0.571850
0.587490
0.601170
0.611930
0.619750
0.624630
0.627570
0.627570
0.624630
0.621700
0.616810
0.609970
0.603130
0.593350
0.582600
0.570870
0.558160
0.544480
0.530790
0.515150
0.502440
0.488760
0.474100
0.459430
0.444770
0.431090
0.418380
0.405670
0.393940
0.382210
0.371460
0.361680
0.354840
0.348970
0.343110
0.338220
0.334310
0.331380
0.327470
0.324540
0.320630
0.317690
0.313780
0.310850
0.309870
0.308900
0.308900
0.308900
0.307920
0.305960
0.304990
0.320630
0.346040
0.358750
0.364610
0.367550
0.369500
0.371460
0.374390
0.377320
0.382210
0.390030
0.401760
0.416420
0.434020
0.456500
0.481920
0.509290
0.537630
0.566960
0.592380
0.615840
0.640270
0.665690
0.690130
0.713590
0.733140
0.750730
0.765400
0.778100
0.787880
0.795700
0.801560
0.804500
0.807430
0.809380
0.808410
0.805470
0.801560
0.794720
0.786900
0.777130
0.765400
0.752690
0.739000
0.726300
0.713590
0.698920
0.684260
0.667640
0.651030
0.635390
0.618770
0.601170
0.585530
0.570870
0.556210
0.544480
0.533720
0.522970
0.512220
0.502440
0.492670
0.482890
0.474100
0.465300
0.456500
0.448680
0.440860
0.433040
0.428150
0.423260
0.419350
0.414470
0.410560
0.405670
0.400780
0.396870
0.391980
0.388070
0.384160
0.381230
0.378300
0.378300
0.377320
0.377320
0.378300
0.382210
0.388070
0.397850
0.411530
0.428150
0.449660
0.474100
0.501470
0.526880
0.551320
0.578690
0.608020
0.637340
0.665690
0.692080
0.717500
0.740960
0.760510
0.777130
0.791790
0.800590
0.807430
0.813290
0.819160
0.822090
0.825020
0.825020
0.823070
0.820140
0.816230
0.809380
0.799610
0.789830
0.779080
0.765400
0.750730
0.735090
0.718480
0.700880
0.683280
0.666670
0.650050
0.633430
0.618770
0.603130
0.590420
0.578690
0.565980
0.552300
0.539590
0.526880
0.514170
0.502440
0.490710
0.478980
0.469210
0.459430
0.451610
0.444770
0.437930
0.430110
0.424240
0.419350
0.414470
0.410560
0.406650
0.402740
0.398830
0.394920
0.391010
0.387100
0.384160
0.380250
0.376340
0.372430
0.369500
0.367550
0.366570
0.367550
0.371460
0.377320
0.387100
0.398830
0.412510
0.432060
0.455520
0.482890
0.512220
0.542520
0.573800
0.604110
0.632450
0.659820
0.686220
0.708700
0.727270
0.740960
0.755620
0.769310
0.781040
0.790810
0.798630
0.804500
0.807430
0.808410
0.807430
0.803520
0.796680
0.787880
0.778100
0.767350
0.755620
0.743890
0.732160
0.718480
0.703810
0.689150
0.672530
0.654940
0.637340
0.621700
0.607040
0.591400
0.575760
0.560120
0.545450
0.530790
0.516130
0.503420
0.490710
0.478010
0.467250
0.459430
0.451610
0.443790
0.435970
0.428150
0.421310
0.414470
0.407620
0.401760
0.395890
0.390030
0.385140
0.381230
0.377320
0.375370
0.372430
0.368520
0.365590
0.361680
0.357770
0.354840
0.352880
0.349950
0.348000
0.346040
0.347020
0.350930
0.356790
0.366570
0.379280
0.395890
0.417400
0.441840
0.469210
0.498530
0.528840
0.560120
0.590420
0.594330
0.585530
0.593350
0.609970
0.628540
0.646140
0.662760
0.677420
0.689150
0.697950
0.703810
0.707720
0.708700
0.706740
0.704790
0.700880
0.694040
0.686220
0.676440
0.665690
0.652980
0.640270
0.625610
0.609970
0.594330
0.580650
0.566960
0.552300
0.535680
0.519060
0.502440
0.484850
0.468230
0.452590
0.436950
0.422290
0.408600
0.396870
0.387100
0.376340
0.365590
0.354840
0.345060
0.336270
0.328450
0.320630
0.312810
0.305960
0.299120
0.292280
0.288370
0.285430
0.283480
0.279570
0.276640
0.272730
0.268820
0.264910
0.261970
0.259040
0.256110
0.254150
0.252200
0.251220
0.249270
0.248290
0.249270
0.253180
0.261000
0.272730
0.289350
0.309870
0.333330
0.360700
0.390030
0.416420
0.441840
0.470190
0.499510
0.528840
0.557180
0.583580
0.608020
0.629520
0.648090
0.663730
0.677420
0.687190
0.693060
0.697950
0.700880
0.701860
0.700880
0.697950
0.694040
0.688170
0.680350
0.671550
0.659820
0.647120
0.634410
0.620720
0.605080
0.588470
0.570870
0.553270
0.536660
0.519060
0.502440
0.486800
0.472140
0.457480
0.443790
0.432060
0.419350
0.406650
0.392960
0.381230
0.369500
0.357770
0.347020
0.336270
0.327470
0.319650
0.313780
0.308900
0.303030
0.297170
0.291300
0.285430
0.279570
0.274680
0.269790
0.266860
0.262950
0.258060
0.254150
0.251220
0.248290
0.244380
0.241450
0.239490
0.237540
0.236560
0.237540
0.240470
0.245360
0.254150
0.266860
