0.725490
0.670590
0.609800
0.550980
0.500000
0.454900
0.409800
0.390200
0.374510
0.358820
0.354900
0.349020
0.354900
0.364710
0.354900
0.364710
0.374510
0.370590
0.390200
0.390200
0.390200
0.394120
0.403920
0.403920
0.400000
0.394120
0.384310
0.384310
0.380390
0.390200
0.403920
0.419610
0.419610
0.425490
0.425490
0.400000
0.390200
0.403920
0.419610
0.429410
0.435290
0.429410
0.415690
0.409800
0.415690
0.419610
0.403920
0.349020
0.654900
1.503900
1.503900
1.503900
0.660780
0.429410
0.419610
0.403920
0.384310
0.349020
0.339220
0.354900
0.380390
0.380390
0.390200
0.403920
0.394120
0.403920
0.429410
0.435290
0.439220
0.460780
0.484310
0.515690
0.550980
0.605880
0.654900
0.696080
0.725490
0.741180
0.750980
0.741180
0.715690
0.664710
0.605880
0.545100
0.474510
0.429410
0.384310
0.345100
0.319610
0.309800
0.309800
0.309800
0.303920
0.294120
0.300000
0.329410
0.329410
0.323530
0.339220
0.329410
0.335290
0.339220
0.339220
0.339220
0.339220
0.335290
0.329410
0.319610
0.329410
0.335290
0.339220
0.354900
0.364710
0.345100
0.335290
0.313730
0.309800
0.313730
0.329410
0.319610
0.335290
0.309800
0.309800
0.303920
0.309800
0.313730
0.264710
0.454900
1.207800
1.503900
1.503900
0.825490
0.335290
0.313730
0.335290
0.313730
0.309800
0.303920
0.309800
0.313730
0.309800
0.335290
0.335290
0.349020
0.364710
0.374510
0.403920
0.425490
0.449020
0.480390
0.515690
0.570590
0.609800
0.676470
0.731370
0.776470
0.800000
0.800000
0.800000
0.776470
0.715690
0.650980
0.584310
0.505880
0.435290
0.370590
0.329410
0.290200
0.258820
0.239220
0.229410
0.239220
0.254900
0.264710
0.284310
0.303920
0.329410
0.345100
0.354900
0.370590
0.380390
0.384310
0.394120
0.384310
0.384310
0.380390
0.374510
0.370590
0.364710
0.358820
0.374510
0.384310
0.380390
0.358820
0.349020
0.313730
0.309800
0.319610
0.335290
0.339220
0.335290
0.335290
0.323530
0.329410
0.335290
0.345100
0.300000
0.258820
0.715690
1.503900
1.503900
1.378400
0.519610
0.403920
0.409800
0.370590
0.354900
0.335290
0.354900
0.370590
0.374510
0.364710
0.380390
0.380390
0.380390
0.400000
0.419610
0.419610
0.460780
0.474510
0.505880
0.525490
0.590200
0.619610
0.676470
0.721570
0.750980
0.776470
0.770590
0.770590
0.745100
0.690200
0.629410
0.564710
0.505880
0.454900
0.415690
0.390200
0.364710
0.345100
0.335290
0.329410
0.335290
0.323530
0.339220
0.358820
0.364710
0.374510
0.364710
0.380390
0.384310
0.394120
0.403920
0.380390
0.394120
0.394120
0.380390
0.374510
0.370590
0.374510
0.390200
0.400000
0.394120
0.390200
0.380390
0.354900
0.319610
0.345100
0.358820
0.374510
0.370590
0.374510
0.339220
0.349020
0.339220
0.349020
0.354900
0.268630
0.449020
1.176500
1.503900
1.503900
0.815690
0.454900
0.429410
0.400000
0.364710
0.349020
0.339220
0.349020
0.370590
0.358820
0.380390
0.394120
0.403920
0.415690
0.419610
0.429410
0.449020
0.470590
0.490200
0.519610
0.564710
0.600000
0.645100
0.696080
0.745100
0.776470
0.796080
0.796080
0.780390
0.741180
0.700000
0.650980
0.584310
0.525490
0.480390
0.454900
0.429410
0.415690
0.400000
0.390200
0.390200
0.403920
0.415690
0.409800
0.419610
0.425490
0.419610
0.425490
0.415690
0.425490
0.425490
0.415690
0.409800
0.403920
0.394120
0.403920
0.400000
0.380390
0.403920
0.409800
0.403920
0.415690
0.394120
0.374510
0.364710
0.358820
0.358820
0.364710
0.354900
0.358820
0.349020
0.339220
0.335290
0.335290
0.345100
0.274510
0.429410
1.092200
1.503900
1.503900
0.896080
0.358820
0.339220
0.354900
0.335290
0.309800
0.313730
0.309800
0.319610
0.335290
0.329410
0.345100
0.354900
0.358820
0.370590
0.374510
0.390200
0.419610
0.445100
0.480390
0.529410
0.570590
0.619610
0.686270
0.725490
0.741180
0.745100
0.754900
0.725490
0.686270
0.615690
0.564710
0.494120
0.419610
0.370590
0.349020
0.329410
0.300000
0.303920
0.284310
0.290200
0.284310
0.300000
0.309800
0.303920
0.329410
0.335290
0.335290
0.335290
0.339220
0.354900
0.354900
0.354900
0.354900
0.349020
0.339220
0.345100
0.349020
0.354900
0.364710
0.370590
0.370590
0.374510
0.335290
0.319610
0.335290
0.339220
0.345100
0.323530
0.323530
0.303920
0.300000
0.309800
0.309800
0.290200
0.254900
0.650980
1.503900
1.503900
1.462700
0.505880
0.329410
0.358820
0.364710
0.370590
0.358820
0.335290
0.335290
0.349020
0.370590
0.380390
0.400000
0.394120
0.403920
0.419610
0.425490
0.429410
0.454900
0.494120
0.529410
0.574510
0.635290
0.696080
0.760780
0.790200
0.825490
0.811760
0.796080
0.760780
0.705880
0.635290
0.580390
0.505880
0.460780
0.403920
0.380390
0.354900
0.345100
0.335290
0.329410
0.335290
0.335290
0.345100
0.354900
0.358820
0.354900
0.380390
0.380390
0.390200
0.403920
0.394120
0.400000
0.394120
0.403920
0.390200
0.380390
0.364710
0.358820
0.380390
0.400000
0.409800
0.400000
0.409800
0.384310
0.354900
0.349020
0.345100
0.374510
0.364710
0.370590
0.358820
0.345100
0.339220
0.339220
0.339220
0.274510
0.264710
0.941180
1.503900
1.503900
1.105900
0.480390
0.419610
0.384310
0.354900
0.329410
0.319610
0.329410
0.349020
0.345100
0.364710
0.374510
0.370590
0.380390
0.390200
0.403920
0.419610
0.439220
0.464710
0.490200
0.539220
0.580390
0.625490
0.686270
0.705880
0.741180
0.750980
0.766670
0.750980
0.709800
0.654900
0.609800
0.554900
0.494120
0.439220
0.403920
0.394120
0.380390
0.374510
0.358820
0.370590
0.364710
0.370590
0.364710
0.380390
0.384310
0.390200
0.394120
0.400000
0.400000
0.394120
0.409800
0.409800
0.403920
0.400000
0.394120
0.390200
0.380390
0.390200
0.409800
0.429410
0.439220
0.435290
0.419610
0.400000
0.403920
0.415690
0.439220
0.429410
0.429410
0.425490
0.419610
0.415690
0.425490
0.429410
0.364710
0.354900
0.992160
1.503900
1.503900
1.147100
0.509800
0.435290
0.425490
0.403920
0.384310
0.364710
0.358820
0.380390
0.374510
0.384310
0.390200
0.400000
0.403920
0.419610
0.429410
0.445100
0.449020
0.474510
0.509800
0.535290
0.570590
0.629410
0.680390
0.709800
0.731370
0.745100
0.745100
0.725490
0.696080
0.641180
0.580390
0.519610
0.460780
0.400000
0.370590
0.349020
0.335290
0.313730
0.303920
0.309800
0.309800
0.309800
0.323530
0.335290
0.329410
0.335290
0.339220
0.349020
0.335290
0.345100
0.345100
0.329410
0.335290
0.335290
0.309800
0.329410
0.354900
0.349020
0.354900
0.349020
0.354900
0.319610
0.309800
0.309800
0.309800
0.329410
0.319610
0.319610
0.329410
0.300000
0.313730
0.313730
0.323530
0.258820
0.494120
1.356900
1.503900
1.503900
0.680390
0.300000
0.329410
0.335290
0.313730
0.284310
0.284310
0.309800
0.319610
0.313730
0.319610
0.329410
0.339220
0.354900
0.374510
0.390200
0.403920
0.445100
0.480390
0.509800
0.550980
0.605880
0.660780
0.709800
0.745100
0.766670
0.770590
0.754900
0.725490
0.670590
0.600000
0.519610
0.439220
0.380390
0.329410
0.294120
0.274510
0.264710
0.264710
0.268630
0.284310
0.303920
0.313730
0.319610
0.329410
0.345100
0.339220
0.364710
0.374510
0.374510
0.380390
0.364710
0.370590
0.345100
0.339220
0.335290
0.335290
0.339220
0.370590
0.380390
0.380390
0.370590
0.380390
0.339220
0.323530
0.335290
0.339220
0.354900
0.358820
0.349020
0.335290
0.329410
0.329410
0.339220
0.354900
0.268630
0.596080
1.503900
1.503900
1.503900
0.605880
0.409800
0.394120
0.374510
0.349020
0.349020
0.345100
0.358820
0.354900
0.364710
0.390200
0.380390
0.384310
0.403920
0.409800
0.403920
0.460780
0.484310
0.500000
0.529410
0.570590
0.609800
0.680390
0.715690
0.750980
0.766670
0.776470
0.766670
0.735290
0.690200
0.629410
0.570590
0.509800
0.464710
0.419610
0.390200
0.358820
0.354900
0.349020
0.339220
0.345100
0.354900
0.364710
0.358820
0.358820
0.374510
0.380390
0.390200
0.403920
0.409800
0.400000
0.394120
0.384310
0.380390
0.370590
0.364710
0.374510
0.390200
0.403920
0.415690
0.403920
0.400000
0.380390
0.354900
0.354900
0.349020
0.374510
0.384310
0.370590
0.349020
0.339220
0.354900
0.349020
0.358820
0.278430
0.264710
0.921570
1.503900
1.503900
1.041200
0.470590
0.415690
0.380390
0.374510
0.349020
0.335290
0.319610
0.349020
0.354900
0.345100
0.380390
0.384310
0.390200
0.403920
0.415690
0.425490
0.439220
0.464710
0.494120
0.539220
0.580390
0.625490
0.676470
0.705880
0.741180
0.754900
0.750980
0.735290
0.705880
0.660780
0.605880
0.550980
0.505880
0.460780
0.429410
0.409800
0.403920
0.403920
0.400000
0.403920
0.425490
0.429410
0.435290
0.445100
0.449020
0.449020
0.445100
0.445100
0.449020
0.449020
0.439220
0.435290
0.435290
0.425490
0.419610
0.419610
0.415690
0.429410
0.439220
0.435290
0.429410
0.419610
0.390200
0.380390
0.380390
0.394120
0.403920
0.390200
0.384310
0.380390
0.358820
0.364710
0.358820
0.374510
0.294120
0.650980
1.503900
1.503900
1.503900
0.550980
0.358820
0.380390
0.354900
0.339220
0.329410
0.339220
0.339220
0.335290
0.339220
0.345100
0.358820
0.358820
0.374510
0.380390
0.390200
0.409800
0.429410
0.454900
0.494120
0.539220
0.584310
0.635290
0.680390
0.705880
0.721570
0.731370
0.721570
0.686270
0.641180
0.584310
0.505880
0.454900
0.403920
0.358820
0.335290
0.309800
0.290200
0.294120
0.290200
0.284310
0.309800
0.303920
0.300000
0.319610
0.339220
0.335290
0.339220
0.354900
0.345100
0.354900
0.349020
0.339220
0.335290
0.339220
0.329410
0.335290
0.335290
0.349020
0.358820
0.354900
0.345100
0.313730
0.309800
0.313730
0.319610
0.335290
0.323530
0.329410
0.309800
0.309800
0.329410
0.313730
0.319610
0.274510
0.750980
1.503900
1.503900
1.407800
0.474510
0.319610
0.345100
0.335290
0.339220
0.313730
0.309800
0.313730
0.319610
0.313730
0.323530
0.323530
0.329410
0.335290
0.345100
0.358820
0.380390
0.415690
0.454900
0.500000
0.554900
0.619610
0.690200
0.750980
0.790200
0.811760
0.821570
0.805880
0.766670
0.709800
0.629410
0.545100
0.474510
0.419610
0.384310
0.339220
0.300000
0.274510
0.284310
0.290200
0.294120
0.300000
0.309800
0.323530
0.339220
0.335290
0.354900
0.370590
0.374510
0.370590
0.380390
0.380390
0.374510
0.370590
0.349020
0.370590
0.358820
0.380390
0.384310
0.394120
0.403920
0.384310
0.380390
0.349020
0.345100
0.339220
0.364710
0.380390
0.358820
0.358820
0.339220
0.345100
0.354900
0.354900
0.339220
0.274510
0.584310
1.468600
1.503900
1.503900
0.676470
0.429410
0.415690
0.384310
0.358820
0.329410
0.339220
0.358820
0.370590
0.364710
0.384310
0.380390
0.390200
0.403920
0.415690
0.425490
0.460780
0.470590
0.494120
0.515690
0.564710
0.609800
0.670590
0.715690
0.741180
0.760780
0.780390
0.786270
0.741180
0.696080
0.635290
0.574510
0.519610
0.464710
0.425490
0.400000
0.380390
0.374510
0.358820
0.354900
0.354900
0.358820
0.374510
0.370590
0.374510
0.370590
0.390200
0.394120
0.390200
0.403920
0.409800
0.400000
0.403920
0.403920
0.390200
0.384310
0.364710
0.394120
0.409800
0.425490
0.425490
0.415690
0.415690
0.370590
0.384310
0.380390
0.400000
0.390200
0.380390
0.358820
0.345100
0.370590
0.364710
0.384310
0.303920
0.290200
0.896080
1.503900
1.503900
1.092200
0.490200
0.425490
0.403920
0.380390
0.374510
0.354900
0.370590
0.400000
0.415690
0.425490
0.460780
0.470590
0.470590
0.484310
0.500000
0.515690
0.535290
0.554900
0.580390
0.615690
0.654900
0.690200
0.745100
0.780390
0.800000
0.815690
0.825490
0.796080
0.750980
0.696080
0.645100
0.574510
0.509800
0.460780
0.419610
0.390200
0.370590
0.364710
0.354900
0.354900
0.358820
0.354900
0.370590
0.380390
0.374510
0.380390
0.384310
0.384310
0.384310
0.390200
0.374510
0.370590
0.364710
0.354900
0.339220
0.349020
0.358820
0.374510
0.370590
0.358820
0.370590
0.345100
0.319610
0.313730
0.319610
0.345100
0.339220
0.335290
0.319610
0.309800
0.319610
0.309800
0.309800
0.254900
0.249020
0.915690
1.503900
1.503900
1.051000
0.364710
0.303920
0.329410
0.303920
0.300000
0.284310
0.290200
0.309800
0.313730
0.323530
0.335290
0.335290
0.345100
0.364710
0.374510
0.390200
0.425490
0.445100
0.480390
0.525490
0.554900
0.619610
0.670590
0.725490
0.745100
0.741180
0.754900
0.725490
0.690200
0.625490
0.564710
0.484310
0.429410
0.364710
0.329410
0.303920
0.290200
0.284310
0.278430
0.274510
0.278430
0.274510
0.294120
0.303920
0.309800
0.323530
0.329410
0.335290
0.335290
0.335290
0.323530
0.319610
0.309800
0.300000
0.294120
0.300000
0.309800
0.313730
0.323530
0.329410
0.329410
0.323530
0.303920
0.303920
0.313730
0.335290
0.345100
0.335290
0.349020
0.329410
0.339220
0.329410
0.339220
0.300000
0.254900
0.660780
1.503900
1.503900
1.456900
0.505880
0.349020
0.364710
0.345100
0.335290
0.319610
0.309800
0.329410
0.335290
0.354900
0.358820
0.364710
0.374510
0.394120
0.409800
0.403920
0.449020
0.460780
0.500000
0.535290
0.574510
0.615690
0.670590
0.715690
0.754900
0.776470
0.766670
0.780390
0.741180
0.690200
0.619610
0.560780
0.494120
0.439220
0.403920
0.374510
0.345100
0.339220
0.329410
0.323530
0.319610
0.323530
0.349020
0.349020
0.358820
0.374510
0.370590
0.380390
0.384310
0.390200
0.390200
0.400000
0.380390
0.374510
0.364710
0.374510
0.364710
0.384310
0.403920
0.400000
0.390200
0.403920
0.384310
0.349020
0.349020
0.354900
0.370590
0.364710
0.370590
0.354900
0.339220
0.345100
0.339220
0.345100
0.278430
0.268630
0.970590
1.503900
1.503900
1.027500
0.490200
0.425490
0.400000
0.374510
0.349020
0.335290
0.345100
0.374510
0.349020
0.358820
0.374510
0.380390
0.384310
0.394120
0.409800
0.415690
0.439220
0.460780
0.480390
0.525490
0.570590
0.609800
0.660780
0.700000
0.721570
0.735290
0.735290
0.725490
0.690200
0.650980
0.590200
0.535290
0.480390
0.435290
0.394120
0.370590
0.354900
0.349020
0.345100
0.354900
0.349020
0.364710
0.370590
0.374510
0.370590
0.374510
0.374510
0.380390
0.390200
0.394120
0.394120
0.400000
0.400000
0.384310
0.374510
0.374510
0.370590
0.403920
0.425490
0.409800
0.403920
0.384310
0.354900
0.354900
0.354900
0.374510
0.380390
0.374510
0.380390
0.364710
0.370590
0.384310
0.400000
0.349020
0.319610
0.905880
1.503900
1.503900
1.156900
0.509800
0.445100
0.435290
0.415690
0.394120
0.364710
0.354900
0.380390
0.403920
0.390200
0.403920
0.425490
0.429410
0.429410
0.445100
0.449020
0.470590
0.484310
0.509800
0.545100
0.584310
0.641180
0.676470
0.715690
0.745100
0.754900
0.754900
0.741180
0.709800
0.650980
0.584310
0.525490
0.470590
0.425490
0.380390
0.370590
0.349020
0.335290
0.323530
0.329410
0.329410
0.323530
0.335290
0.339220
0.349020
0.354900
0.354900
0.354900
0.358820
0.354900
0.345100
0.335290
0.345100
0.335290
0.323530
0.335290
0.349020
0.349020
0.358820
0.349020
0.345100
0.329410
0.309800
0.303920
0.323530
0.319610
0.329410
0.323530
0.313730
0.309800
0.303920
0.309800
0.303920
0.249020
0.449020
1.227500
1.503900
1.503900
0.750980
0.319610
0.309800
0.329410
0.313730
0.290200
0.294120
0.300000
0.309800
0.313730
0.323530
0.329410
0.335290
0.349020
0.370590
0.364710
0.384310
0.415690
0.454900
0.490200
0.525490
0.590200
0.654900
0.696080
0.735290
0.760780
0.780390
0.741180
0.705880
0.664710
0.605880
0.509800
0.454900
0.403920
0.345100
0.313730
0.300000
0.309800
0.284310
0.300000
0.290200
0.303920
0.284310
0.309800
0.309800
0.329410
0.335290
0.354900
0.349020
0.345100
0.358820
0.339220
0.335290
0.349020
0.374510
0.339220
0.329410
0.323530
0.358820
0.384310
0.380390
0.364710
0.374510
0.335290
0.319610
0.349020
0.319610
0.323530
0.349020
0.339220
0.319610
0.309800
0.345100
0.354900
0.323530
0.290200
0.805880
1.503900
1.503900
1.472500
0.490200
0.345100
0.384310
0.354900
0.345100
0.335290
0.335290
0.349020
0.345100
0.354900
0.374510
0.384310
0.400000
0.429410
0.445100
0.474510
0.500000
0.525490
0.554900
0.596080
0.641180
0.680390
0.735290
0.786270
0.805880
0.805880
0.800000
0.786270
0.745100
0.696080
0.629410
0.570590
0.509800
0.454900
0.415690
0.384310
0.364710
0.364710
0.354900
0.364710
0.354900
0.364710
0.380390
0.380390
0.394120
0.403920
0.419610
0.425490
0.429410
0.435290
0.439220
0.429410
0.425490
0.415690
0.409800
0.394120
0.400000
0.394120
0.400000
0.425490
0.425490
0.425490
0.419610
0.394120
0.374510
0.380390
0.390200
0.403920
0.390200
0.384310
0.380390
0.370590
0.370590
0.374510
0.374510
0.274510
0.409800
1.131400
1.503900
1.503900
0.880390
0.439220
0.425490
0.419610
0.384310
0.345100
0.329410
0.339220
0.354900
0.354900
0.370590
0.380390
0.390200
0.400000
0.409800
0.425490
0.445100
0.454900
0.484310
0.509800
0.545100
0.590200
0.641180
0.690200
0.731370
0.754900
0.770590
0.766670
0.745100
0.705880
0.645100
0.580390
0.509800
0.449020
0.403920
0.374510
0.345100
0.329410
0.313730
0.309800
0.309800
0.313730
0.313730
0.329410
0.335290
0.345100
0.349020
0.354900
0.354900
0.364710
0.354900
0.374510
0.364710
0.358820
0.354900
0.354900
0.354900
0.354900
0.364710
0.380390
0.403920
0.394120
0.380390
0.358820
0.323530
0.303920
0.335290
0.345100
0.339220
0.335290
0.323530
0.313730
0.323530
0.335290
0.335290
0.254900
0.249020
0.890200
1.503900
1.503900
0.982350
0.460780
0.415690
0.384310
0.349020
0.335290
0.319610
0.335290
0.349020
0.354900
0.374510
0.384310
0.364710
0.358820
0.380390
0.400000
0.415690
0.439220
0.454900
0.484310
0.529410
0.564710
0.615690
0.660780
0.696080
0.721570
0.731370
0.731370
0.709800
0.680390
0.645100
0.580390
0.529410
0.480390
0.435290
0.400000
0.370590
0.339220
0.335290
0.335290
0.335290
0.323530
0.345100
0.349020
0.345100
0.354900
0.358820
0.358820
0.364710
0.364710
0.374510
0.380390
0.374510
0.380390
0.364710
0.354900
0.349020
0.370590
0.384310
0.400000
0.403920
0.394120
0.384310
0.354900
0.339220
0.345100
0.354900
0.358820
0.354900
0.354900
0.345100
0.335290
0.335290
0.329410
0.339220
0.258820
0.429410
1.147100
1.503900
1.503900
0.750980
0.403920
0.390200
0.394120
0.364710
0.335290
0.329410
0.329410
0.349020
0.354900
0.364710
0.384310
0.390200
0.390200
0.415690
0.425490
0.429410
0.449020
0.470590
0.500000
0.539220
0.584310
0.635290
0.676470
0.715690
0.741180
0.745100
0.745100
0.731370
0.700000
0.660780
0.615690
0.570590
0.525490
0.494120
0.460780
0.435290
0.425490
0.403920
0.400000
0.409800
0.409800
0.415690
0.425490
0.419610
0.425490
0.419610
0.425490
0.415690
0.409800
0.403920
0.394120
0.394120
0.390200
0.380390
0.380390
0.364710
0.374510
0.394120
0.400000
0.400000
0.394120
0.384310
0.358820
0.354900
0.354900
0.358820
0.364710
0.354900
0.354900
0.335290
0.329410
0.335290
0.335290
0.345100
0.268630
0.680390
1.503900
1.503900
1.282400
0.449020
0.329410
0.345100
0.329410
0.319610
0.303920
0.300000
0.313730
0.319610
0.313730
0.329410
0.335290
0.335290
0.358820
0.374510
0.394120
0.403920
0.419610
0.454900
0.494120
0.535290
0.570590
0.619610
0.664710
0.705880
0.715690
0.715690
0.700000
0.664710
0.629410
0.574510
0.509800
0.449020
0.403920
0.358820
0.335290
0.303920
0.300000
0.303920
0.300000
0.300000
0.294120
0.309800
0.313730
0.313730
0.329410
0.335290
0.335290
0.345100
0.345100
0.349020
0.339220
0.335290
0.329410
0.323530
0.319610
0.313730
0.339220
0.345100
0.335290
0.323530
0.309800
0.284310
0.274510
0.264710
0.274510
0.278430
0.264710
0.264710
0.258820
0.268630
0.274510
0.284310
0.290200
0.258820
0.629410
1.503900
1.503900
1.503900
0.550980
0.323530
0.345100
0.335290
0.323530
0.313730
0.313730
0.329410
0.354900
0.354900
0.354900
0.364710
0.370590
0.380390
0.403920
0.425490
0.439220
0.464710
0.490200
0.525490
0.574510
0.625490
0.676470
0.731370
0.766670
0.780390
0.796080
0.776470
0.766670
0.721570
0.654900
0.596080
0.529410
0.474510
0.425490
0.394120
0.370590
0.345100
0.345100
0.339220
0.345100
0.339220
0.354900
0.358820
0.370590
0.380390
0.394120
0.403920
0.409800
0.409800
0.415690
0.400000
0.394120
0.400000
0.390200
0.374510
0.374510
0.380390
0.403920
0.409800
0.425490
0.415690
0.403920
0.374510
0.358820
0.364710
0.374510
0.384310
0.364710
0.370590
0.354900
0.354900
0.354900
0.349020
0.358820
0.268630
0.490200
1.307800
1.503900
1.503900
0.776470
0.454900
0.445100
0.403920
0.380390
0.354900
0.349020
0.354900
0.364710
0.370590
0.390200
0.400000
0.384310
0.403920
0.425490
0.435290
0.445100
0.460780
0.484310
0.505880
0.554900
0.596080
0.650980
0.690200
0.715690
0.741180
0.745100
0.741180
0.721570
0.690200
0.635290
0.584310
0.535290
0.494120
0.439220
0.419610
0.384310
0.390200
0.374510
0.358820
0.354900
0.380390
0.380390
0.390200
0.384310
0.403920
0.400000
0.394120
0.409800
0.403920
0.400000
0.400000
0.400000
0.394120
0.390200
0.380390
0.380390
0.380390
0.409800
0.419610
0.435290
0.409800
0.400000
0.364710
0.358820
0.358820
0.380390
0.390200
0.384310
0.380390
0.364710
0.364710
0.364710
0.374510
0.380390
0.309800
0.615690
1.488200
1.503900
1.503900
0.629410
0.435290
0.445100
0.449020
0.429410
0.400000
0.380390
0.400000
0.425490
0.425490
0.419610
0.425490
0.439220
0.445100
0.449020
0.460780
0.474510
0.494120
0.505880
0.529410
0.564710
0.600000
0.645100
0.686270
0.715690
0.731370
0.741180
0.731370
0.721570
0.680390
0.629410
0.564710
0.515690
0.464710
0.425490
0.400000
0.374510
0.358820
0.354900
0.354900
0.358820
0.354900
0.354900
0.354900
0.364710
0.370590
0.380390
0.384310
0.370590
0.364710
0.370590
0.364710
0.354900
0.354900
0.354900
0.335290
0.335290
0.349020
0.354900
0.364710
0.354900
0.354900
0.323530
0.309800
0.313730
0.323530
0.335290
0.323530
0.329410
0.309800
0.309800
0.309800
0.309800
0.319610
0.268630
0.600000
1.503900
1.503900
1.503900
0.564710
0.309800
0.335290
0.329410
0.313730
0.319610
0.309800
0.309800
0.323530
0.329410
0.335290
0.339220
0.354900
0.374510
0.384310
0.394120
0.403920
0.429410
0.470590
0.505880
0.560780
0.615690
0.670590
0.690200
0.735290
0.754900
0.754900
0.745100
0.715690
0.670590
0.609800
0.535290
0.474510
0.415690
0.358820
0.323530
0.294120
0.278430
0.268630
0.274510
0.268630
0.274510
0.284310
0.284310
0.300000
0.309800
0.313730
0.319610
0.323530
0.329410
0.335290
0.339220
0.335290
0.339220
0.339220
0.339220
0.339220
0.354900
0.370590
0.374510
0.364710
0.358820
0.349020
0.329410
0.335290
0.323530
0.329410
0.319610
0.319610
0.313730
0.309800
0.319610
0.329410
0.335290
0.284310
0.268630
0.896080
1.503900
1.503900
1.111800
0.429410
0.374510
0.403920
0.358820
0.345100
0.335290
0.345100
0.358820
0.364710
0.384310
0.364710
0.364710
0.380390
0.400000
0.409800
0.425490
0.445100
0.470590
0.500000
0.545100
0.596080
0.650980
0.696080
0.725490
0.750980
0.754900
0.745100
0.731370
0.700000
0.650980
0.590200
0.550980
0.505880
0.449020
0.415690
0.380390
0.358820
0.349020
0.339220
0.349020
0.354900
0.364710
0.349020
0.370590
0.374510
0.380390
0.380390
0.384310
0.380390
0.394120
0.390200
0.390200
0.400000
0.380390
0.390200
0.390200
0.370590
0.384310
0.403920
0.415690
0.415690
0.403920
0.384310
0.370590
0.364710
0.374510
0.384310
0.390200
0.374510
0.358820
0.354900
0.345100
0.349020
0.349020
0.300000
0.264710
0.856860
1.503900
1.503900
1.131400
0.490200
0.429410
0.409800
0.374510
0.358820
0.345100
0.339220
0.364710
0.374510
0.364710
0.390200
0.384310
0.394120
0.403920
0.425490
0.439220
0.460780
0.470590
0.500000
0.539220
0.574510
0.625490
0.664710
0.705880
0.731370
0.731370
0.731370
0.725490
0.696080
0.654900
0.605880
0.550980
0.509800
0.470590
0.429410
0.400000
0.380390
0.380390
0.374510
0.374510
0.384310
0.394120
0.403920
0.403920
0.419610
0.425490
0.439220
0.449020
0.454900
0.449020
0.454900
0.449020
0.464710
0.449020
0.439220
0.429410
0.425490
0.435290
0.445100
0.445100
0.435290
0.425490
0.403920
0.380390
0.370590
0.374510
0.380390
0.380390
0.374510
0.370590
0.354900
0.349020
0.354900
0.364710
0.303920
0.294120
0.937250
1.503900
1.503900
1.047100
0.415690
0.374510
0.384310
0.354900
0.323530
0.319610
0.329410
0.323530
0.335290
0.339220
0.349020
0.354900
0.358820
0.374510
0.384310
0.403920
0.419610
0.439220
0.470590
0.509800
0.545100
0.600000
0.641180
0.680390
0.705880
0.725490
0.721570
0.690200
0.676470
0.625490
0.574510
0.505880
0.449020
0.400000
0.358820
0.339220
0.313730
0.303920
0.309800
0.319610
0.309800
0.319610
0.335290
0.335290
0.335290
0.339220
0.354900
0.364710
0.345100
0.358820
0.354900
0.345100
0.345100
0.335290
0.335290
0.335290
0.339220
0.345100
0.364710
0.354900
0.358820
0.335290
0.319610
0.313730
0.323530
0.339220
0.349020
0.335290
0.335290
0.319610
0.319610
0.329410
0.335290
0.303920
0.284310
0.831370
1.503900
1.503900
1.227500
0.394120
0.290200
0.313730
0.309800
0.294120
0.278430
0.274510
0.284310
0.300000
0.329410
0.345100
0.354900
0.358820
0.374510
0.390200
0.419610
0.445100
0.464710
0.494120
0.529410
0.574510
0.629410
0.690200
0.731370
0.766670
0.776470
0.760780
0.750980
0.715690
0.664710
0.596080
0.539220
0.484310
0.419610
0.380390
0.354900
0.335290
0.329410
0.319610
0.313730
0.323530
0.319610
0.329410
0.335290
0.349020
0.354900
0.374510
0.384310
0.380390
0.394120
0.390200
0.400000
0.380390
0.380390
0.370590
0.354900
0.354900
0.364710
0.380390
0.394120
0.403920
0.409800
0.400000
0.374510
0.345100
0.345100
0.349020
0.364710
0.370590
0.358820
0.370590
0.349020
0.358820
0.354900
0.349020
0.278430
0.454900
1.207800
1.503900
1.503900
0.845100
0.470590
0.445100
0.409800
0.390200
0.349020
0.345100
0.358820
0.364710
0.358820
0.384310
0.394120
0.390200
0.419610
0.425490
0.435290
0.449020
0.460780
0.494120
0.515690
0.545100
0.609800
0.650980
0.686270
0.721570
0.735290
0.741180
0.745100
0.725490
0.696080
0.650980
0.605880
0.550980
0.505880
0.460780
0.425490
0.403920
0.384310
0.400000
0.380390
0.374510
0.370590
0.380390
0.380390
0.380390
0.384310
0.384310
0.403920
0.403920
0.409800
0.403920
0.403920
0.400000
0.394120
0.409800
0.400000
0.403920
0.403920
0.409800
0.429410
0.439220
0.419610
0.415690
0.390200
0.364710
0.358820
0.374510
0.380390
0.384310
0.380390
0.358820
0.354900
0.354900
0.358820
0.370590
0.294120
0.460780
1.151000
1.503900
1.503900
0.821570
0.445100
0.425490
0.439220
0.425490
0.400000
0.384310
0.400000
0.435290
0.449020
0.449020
0.464710
0.470590
0.474510
0.480390
0.490200
0.500000
0.509800
0.525490
0.550980
0.584310
0.609800
0.664710
0.705880
0.735290
0.754900
0.750980
0.754900
0.731370
0.696080
0.654900
0.590200
0.535290
0.494120
0.449020
0.403920
0.380390
0.364710
0.358820
0.358820
0.358820
0.364710
0.380390
0.380390
0.384310
0.390200
0.394120
0.390200
0.380390
0.380390
0.384310
0.380390
0.374510
0.358820
0.339220
0.345100
0.335290
0.339220
0.370590
0.370590
0.358820
0.364710
0.349020
0.335290
0.323530
0.329410
0.335290
0.345100
0.335290
0.319610
0.313730
0.309800
0.323530
0.323530
0.290200
0.264710
0.835290
1.503900
1.503900
1.166700
0.394120
0.309800
0.329410
0.313730
0.309800
0.309800
0.309800
0.319610
0.335290
0.345100
0.339220
0.354900
0.354900
0.354900
0.370590
0.390200
0.403920
0.435290
0.464710
0.505880
0.535290
0.596080
0.650980
0.696080
0.725490
0.731370
0.731370
0.715690
0.680390
0.629410
0.570590
0.505880
0.435290
0.384310
0.345100
0.309800
0.284310
0.278430
0.274510
0.268630
0.274510
0.268630
0.284310
0.284310
0.294120
0.303920
0.313730
0.329410
0.329410
0.323530
0.335290
0.323530
0.319610
0.319610
0.313730
0.313730
0.323530
0.349020
0.370590
0.380390
0.370590
0.364710
0.339220
0.319610
0.329410
0.335290
0.354900
0.349020
0.345100
0.354900
0.329410
0.335290
0.335290
0.323530
0.239220
0.415690
1.196100
1.503900
1.503900
0.821570
0.390200
0.374510
0.384310
0.354900
0.339220
0.335290
0.358820
0.374510
0.380390
0.370590
0.380390
0.380390
0.403920
0.425490
0.439220
0.449020
0.470590
0.494120
0.535290
0.564710
0.609800
0.654900
0.709800
0.750980
0.776470
0.780390
0.766670
0.754900
0.715690
0.664710
0.605880
0.550980
0.500000
0.454900
0.415690
0.384310
0.358820
0.354900
0.354900
0.354900
0.358820
0.358820
0.364710
0.380390
0.384310
0.390200
0.390200
0.394120
0.394120
0.390200
0.394120
0.380390
0.380390
0.370590
0.358820
0.354900
0.370590
0.390200
0.400000
0.415690
0.403920
0.400000
0.370590
0.345100
0.349020
0.354900
0.370590
0.380390
0.364710
0.349020
0.354900
0.349020
0.354900
0.358820
0.274510
0.435290
1.117600
1.503900
1.503900
0.845100
0.435290
0.419610
0.394120
0.380390
0.354900
0.339220
0.349020
0.374510
0.364710
0.390200
0.400000
0.384310
0.403920
0.419610
0.435290
0.449020
0.464710
0.490200
0.515690
0.545100
0.590200
0.635290
0.664710
0.705880
0.735290
0.731370
0.731370
0.709800
0.680390
0.629410
0.584310
0.529410
0.494120
0.435290
0.403920
0.394120
0.380390
0.364710
0.358820
0.364710
0.358820
0.364710
0.374510
0.380390
0.380390
0.384310
0.380390
0.384310
0.394120
0.400000
0.400000
0.390200
0.390200
0.390200
0.380390
0.384310
0.380390
0.400000
0.409800
0.425490
0.409800
0.415690
0.374510
0.358820
0.380390
0.394120
0.409800
0.415690
0.403920
0.390200
0.380390
0.390200
0.394120
0.400000
0.319610
0.525490
1.292200
1.503900
1.503900
0.750980
0.415690
0.400000
0.394120
0.384310
0.358820
0.335290
0.339220
0.370590
0.374510
0.370590
0.384310
0.394120
0.394120
0.403920
0.415690
0.429410
0.445100
0.464710
0.494120
0.529410
0.564710
0.619610
0.654900
0.680390
0.700000
0.709800
0.709800
0.690200
0.654900
0.609800
0.560780
0.505880
0.454900
0.400000
0.364710
0.345100
0.329410
0.313730
0.323530
0.329410
0.335290
0.323530
0.335290
0.339220
0.354900
0.339220
0.354900
0.358820
0.354900
0.354900
0.345100
0.349020
0.335290
0.329410
0.323530
0.335290
0.329410
0.358820
0.370590
0.354900
0.339220
0.335290
0.309800
0.303920
0.313730
0.329410
0.323530
0.309800
0.319610
0.313730
0.309800
0.313730
0.309800
0.274510
0.258820
0.886270
1.503900
1.503900
1.102000
0.380390
0.303920
0.329410
0.319610
0.309800
0.300000
0.303920
0.309800
0.323530
0.329410
0.339220
0.354900
0.354900
0.370590
0.384310
0.394120
0.419610
0.449020
0.490200
0.525490
0.574510
0.619610
0.670590
0.715690
0.735290
0.754900
0.760780
0.731370
0.690200
0.629410
0.570590
0.500000
0.439220
0.384310
0.335290
0.303920
0.268630
0.254900
0.249020
0.258820
0.264710
0.274510
0.284310
0.294120
0.309800
0.329410
0.339220
0.354900
0.354900
0.358820
0.358820
0.354900
0.358820
0.354900
0.358820
0.349020
0.339220
0.354900
0.374510
0.384310
0.380390
0.380390
0.358820
0.335290
0.335290
0.339220
0.354900
0.358820
0.349020
0.339220
0.339220
0.335290
0.345100
0.345100
0.278430
0.264710
0.866670
1.503900
1.503900
1.121600
0.449020
0.390200
0.380390
0.354900
0.339220
0.323530
0.349020
0.354900
0.374510
0.384310
0.384310
0.384310
0.400000
0.419610
0.435290
0.445100
0.460780
0.480390
0.505880
0.539220
0.574510
0.635290
0.676470
0.709800
0.741180
0.754900
0.745100
0.731370
0.709800
0.664710
0.609800
0.545100
0.505880
0.464710
0.419610
0.394120
0.370590
0.354900
0.354900
0.354900
0.354900
0.358820
0.370590
0.380390
0.380390
0.380390
0.374510
0.390200
0.394120
0.390200
0.394120
0.384310
0.394120
0.394120
0.380390
0.374510
0.380390
0.380390
0.394120
0.409800
0.409800
0.400000
0.390200
0.349020
0.354900
0.354900
0.370590
0.380390
0.370590
0.364710
0.349020
0.339220
0.354900
0.354900
0.345100
0.290200
0.574510
1.417600
1.503900
1.503900
0.625490
0.403920
0.403920
0.394120
0.374510
0.349020
0.329410
0.358820
0.374510
0.374510
0.390200
0.403920
0.394120
0.409800
0.425490
0.439220
0.470590
0.474510
0.494120
0.525490
0.564710
0.600000
0.645100
0.696080
0.721570
0.725490
0.731370
0.725490
0.709800
0.676470
0.641180
0.596080
0.545100
0.500000
0.460780
0.425490
0.400000
0.384310
0.374510
0.374510
0.380390
0.384310
0.384310
0.390200
0.394120
0.400000
0.394120
0.400000
0.403920
0.415690
0.425490
0.425490
0.425490
0.429410
0.429410
0.419610
0.409800
0.419610
0.439220
0.454900
0.464710
0.460780
0.449020
0.419610
0.400000
0.390200
0.394120
0.409800
0.415690
0.394120
0.380390
0.364710
0.364710
0.358820
0.370590
0.309800
0.425490
1.037300
1.503900
1.503900
0.911760
0.394120
0.364710
0.380390
0.364710
0.339220
0.319610
0.329410
0.335290
0.345100
0.354900
0.374510
0.374510
0.380390
0.394120
0.403920
0.415690
0.425490
0.445100
0.480390
0.505880
0.545100
0.596080
0.629410
0.660780
0.686270
0.686270
0.696080
0.670590
0.645100
0.609800
0.550980
0.505880
0.439220
0.400000
0.358820
0.329410
0.309800
0.309800
0.313730
0.313730
0.319610
0.319610
0.329410
0.335290
0.335290
0.345100
0.349020
0.354900
0.354900
0.349020
0.345100
0.339220
0.335290
0.335290
0.329410
0.309800
0.309800
0.323530
0.349020
0.354900
0.349020
0.335290
0.309800
0.294120
0.309800
0.319610
0.329410
0.319610
0.319610
0.309800
0.303920
0.319610
0.309800
0.323530
0.284310
0.445100
1.105900
1.503900
1.503900
0.915690
0.354900
0.309800
0.339220
0.335290
0.319610
0.313730
0.319610
0.319610
0.319610
0.335290
0.339220
0.349020
0.354900
0.370590
0.380390
0.400000
0.409800
0.439220
0.470590
0.509800
0.550980
0.605880
0.660780
0.705880
0.735290
0.754900
0.750980
0.731370
0.690200
0.645100
0.580390
0.515690
0.454900
0.400000
0.358820
0.335290
0.309800
0.294120
0.294120
0.309800
0.323530
0.329410
0.335290
0.335290
0.349020
0.354900
0.358820
0.370590
0.380390
0.374510
0.380390
0.374510
0.370590
0.354900
0.354900
0.354900
0.349020
0.345100
0.364710
0.380390
0.380390
0.374510
0.370590
0.345100
0.335290
0.339220
0.354900
0.374510
0.370590
0.380390
0.358820
0.354900
0.354900
0.349020
0.354900
0.278430
0.445100
1.196100
1.503900
1.503900
0.831370
0.425490
0.409800
0.394120
0.380390
0.358820
0.345100
0.358820
0.370590
0.354900
0.394120
0.403920
0.394120
0.403920
0.419610
0.429410
0.449020
0.460780
0.484310
0.515690
0.554900
0.590200
0.635290
0.686270
0.715690
0.735290
0.745100
0.735290
0.731370
0.686270
0.641180
0.584310
0.535290
0.490200
0.445100
0.409800
0.384310
0.370590
0.354900
0.358820
0.358820
0.364710
0.374510
0.380390
0.380390
0.380390
0.390200
0.400000
0.394120
0.403920
0.409800
0.390200
0.380390
0.380390
0.374510
0.364710
0.358820
0.354900
0.354900
0.374510
0.400000
0.403920
0.403920
0.394120
0.370590
0.349020
0.354900
0.380390
0.394120
0.384310
0.374510
0.349020
0.345100
0.354900
0.349020
0.358820
0.294120
0.445100
1.096100
1.503900
1.503900
0.841180
0.415690
0.400000
0.390200
0.364710
0.370590
0.335290
0.345100
0.358820
0.370590
0.384310
0.403920
0.403920
0.403920
0.425490
0.435290
0.449020
0.474510
0.494120
0.519610
0.550980
0.596080
0.635290
0.680390
0.715690
0.745100
0.754900
0.745100
0.731370
0.700000
0.654900
0.615690
0.554900
0.515690
0.474510
0.429410
0.403920
0.384310
0.374510
0.370590
0.374510
0.380390
0.380390
0.384310
0.394120
0.403920
0.403920
0.403920
0.409800
0.409800
0.415690
0.419610
0.425490
0.425490
0.425490
0.425490
0.425490
0.429410
0.445100
0.449020
0.460780
0.464710
0.454900
0.439220
0.403920
0.400000
0.394120
0.403920
0.409800
0.403920
0.380390
0.374510
0.364710
0.370590
0.374510
0.354900
0.309800
0.680390
1.503900
1.503900
1.402000
0.505880
0.354900
0.374510
0.364710
0.354900
0.335290
0.335290
0.339220
0.354900
0.354900
0.364710
0.374510
0.380390
0.390200
0.403920
0.419610
0.429410
0.449020
0.470590
0.505880
0.545100
0.584310
0.635290
0.670590
0.700000
0.709800
0.705880
0.705880
0.680390
0.645100
0.596080
0.539220
0.490200
0.439220
0.390200
0.358820
0.339220
0.323530
0.323530
0.323530
0.335290
0.335290
0.339220
0.349020
0.354900
0.354900
0.364710
0.370590
0.374510
0.364710
0.358820
0.354900
0.354900
0.349020
0.354900
0.339220
0.339220
0.345100
0.349020
0.364710
0.374510
0.380390
0.358820
0.335290
0.323530
0.339220
0.349020
0.339220
0.345100
0.335290
0.319610
0.319610
0.335290
0.329410
0.313730
0.284310
0.641180
1.503900
1.503900
1.503900
0.519610
0.309800
0.335290
0.339220
0.323530
0.323530
0.319610
0.329410
0.339220
0.345100
0.349020
0.354900
0.374510
0.384310
0.400000
0.409800
0.425490
0.445100
0.474510
0.515690
0.560780
0.609800
0.660780
0.705880
0.731370
0.750980
0.750980
0.741180
0.709800
0.660780
0.600000
0.529410
0.460780
0.409800
0.358820
0.329410
0.309800
0.294120
0.290200
0.294120
0.313730
0.329410
0.345100
0.345100
0.354900
0.354900
0.370590
0.380390
0.384310
0.384310
0.390200
0.390200
0.384310
0.380390
0.380390
0.370590
0.364710
0.354900
0.358820
0.380390
0.394120
0.403920
0.400000
0.403920
0.370590
0.354900
0.354900
0.358820
0.380390
0.380390
0.370590
0.354900
0.354900
0.354900
0.364710
0.358820
0.284310
0.505880
1.333300
1.503900
1.503900
0.750980
0.429410
0.415690
0.394120
0.374510
0.354900
0.349020
0.370590
0.374510
0.380390
0.394120
0.403920
0.403920
0.403920
0.429410
0.454900
0.464710
0.474510
0.494120
0.525490
0.560780
0.596080
0.645100
0.690200
0.721570
0.741180
0.745100
0.731370
0.731370
0.700000
0.645100
0.605880
0.545100
0.494120
0.445100
0.409800
0.380390
0.364710
0.354900
0.354900
0.354900
0.358820
0.374510
0.380390
0.374510
0.380390
0.390200
0.380390
0.380390
0.394120
0.400000
0.390200
0.380390
0.380390
0.380390
0.364710
0.374510
0.370590
0.374510
0.384310
0.403920
0.415690
0.415690
0.403920
0.390200
0.358820
0.358820
0.370590
0.380390
0.390200
0.390200
0.370590
0.354900
0.354900
0.354900
0.364710
0.319610
0.294120
0.845100
1.503900
1.503900
1.131400
0.460780
0.409800
0.419610
0.384310
0.380390
0.358820
0.354900
0.374510
0.380390
0.394120
0.415690
0.415690
0.415690
0.425490
0.445100
0.460780
0.474510
0.494120
0.515690
0.545100
0.584310
0.625490
0.664710
0.705880
0.731370
0.745100
0.750980
0.735290
0.715690
0.676470
0.625490
0.584310
0.529410
0.484310
0.445100
0.409800
0.384310
0.358820
0.354900
0.354900
0.354900
0.358820
0.358820
0.364710
0.370590
0.374510
0.364710
0.374510
0.380390
0.380390
0.374510
0.374510
0.364710
0.364710
0.354900
0.354900
0.349020
0.354900
0.370590
0.390200
0.400000
0.400000
0.390200
0.380390
0.354900
0.358820
0.380390
0.400000
0.415690
0.409800
0.400000
0.394120
0.394120
0.403920
0.409800
0.370590
0.349020
0.890200
1.503900
1.503900
1.147100
0.474510
0.403920
0.409800
0.394120
0.380390
0.354900
0.354900
0.358820
0.380390
0.380390
0.384310
0.394120
0.403920
0.403920
0.419610
0.435290
0.449020
0.470590
0.500000
0.535290
0.564710
0.615690
0.654900
0.690200
0.709800
0.725490
0.731370
0.709800
0.686270
0.645100
0.605880
0.550980
0.494120
0.439220
0.400000
0.364710
0.349020
0.335290
0.319610
0.335290
0.329410
0.323530
0.339220
0.345100
0.339220
0.354900
0.364710
0.358820
0.354900
0.358820
0.354900
0.349020
0.335290
0.335290
0.323530
0.319610
0.323530
0.335290
0.329410
0.354900
0.354900
0.358820
0.354900
0.339220
0.319610
0.313730
0.329410
0.358820
0.349020
0.354900
0.335290
0.323530
0.329410
0.335290
0.345100
0.313730
0.449020
1.076500
1.503900
1.503900
0.960780
0.370590
0.319610
0.354900
0.339220
0.335290
0.335290
0.329410
0.339220
0.349020
0.354900
0.364710
0.380390
0.374510
0.390200
0.409800
0.419610
0.445100
0.470590
0.515690
0.550980
0.596080
0.650980
0.705880
0.745100
0.770590
0.780390
0.780390
0.766670
0.731370
0.676470
0.605880
0.529410
0.464710
0.409800
0.358820
0.323530
0.303920
0.290200
0.290200
0.294120
0.300000
0.309800
0.319610
0.329410
0.339220
0.354900
0.358820
0.358820
0.364710
0.374510
0.374510
0.370590
0.358820
0.354900
0.349020
0.349020
0.345100
0.339220
0.354900
0.380390
0.394120
0.384310
0.384310
0.364710
0.345100
0.339220
0.354900
0.370590
0.358820
0.358820
0.354900
0.349020
0.349020
0.354900
0.358820
0.319610
0.300000
0.886270
1.503900
1.503900
1.176500
0.480390
0.400000
0.403920
0.394120
0.374510
0.354900
0.354900
0.358820
0.380390
0.384310
0.400000
0.409800
0.409800
0.425490
0.439220
0.454900
0.474510
0.500000
0.525490
0.550980
0.596080
0.635290
0.680390
0.709800
0.741180
0.754900
0.754900
0.741180
0.721570
0.680390
0.641180
0.584310
0.525490
0.474510
0.439220
0.403920
0.380390
0.370590
0.358820
0.358820
0.354900
0.370590
0.380390
0.380390
0.384310
0.394120
0.400000
0.400000
0.394120
0.400000
0.400000
0.390200
0.384310
0.384310
0.374510
0.358820
0.354900
0.354900
0.354900
0.364710
0.380390
0.394120
0.394120
0.390200
0.370590
0.339220
0.335290
0.354900
0.364710
0.370590
0.358820
0.349020
0.339220
0.335290
0.345100
0.358820
0.323530
0.290200
0.770590
1.503900
1.503900
1.292200
0.515690
0.403920
0.409800
0.390200
0.370590
0.354900
0.354900
0.370590
0.380390
0.394120
0.403920
0.415690
0.419610
0.429410
0.445100
0.460780
0.474510
0.490200
0.519610
0.545100
0.584310
0.619610
0.680390
0.709800
0.741180
0.754900
0.760780
0.745100
0.725490
0.690200
0.645100
0.596080
0.539220
0.490200
0.454900
0.425490
0.400000
0.384310
0.374510
0.374510
0.370590
0.374510
0.380390
0.380390
0.384310
0.394120
0.400000
0.390200
0.394120
0.390200
0.394120
0.380390
0.380390
0.380390
0.374510
0.370590
0.354900
0.354900
0.354900
0.364710
0.380390
0.394120
0.400000
0.390200
0.364710
0.345100
0.339220
0.354900
0.380390
0.380390
0.370590
0.354900
0.345100
0.354900
0.364710
0.374510
0.335290
0.394120
0.825490
1.503900
1.503900
1.227500
0.509800
0.419610
0.425490
0.415690
0.409800
0.380390
0.370590
0.374510
0.394120
0.403920
0.403920
0.409800
0.425490
0.429410
0.439220
0.454900
0.470590
0.494120
0.515690
0.539220
0.574510
0.619610
0.654900
0.686270
0.715690
0.731370
0.731370
0.721570
0.700000
0.664710
0.615690
0.564710
0.505880
0.454900
0.415690
0.384310
0.364710
0.345100
0.339220
0.339220
0.345100
0.354900
0.354900
0.354900
0.364710
0.374510
0.374510
0.374510
0.374510
0.370590
0.364710
0.358820
0.354900
0.339220
0.345100
0.335290
0.329410
0.335290
0.339220
0.354900
0.354900
0.358820
0.364710
0.339220
0.313730
0.313730
0.323530
0.339220
0.345100
0.335290
0.323530
0.319610
0.323530
0.319610
0.323530
0.335290
0.294120
0.725490
1.503900
1.503900
1.402000
0.494120
0.319610
0.349020
0.339220
0.339220
0.345100
0.339220
0.335290
0.349020
0.354900
0.364710
0.380390
0.384310
0.403920
0.419610
0.425490
0.445100
0.460780
0.494120
0.535290
0.580390
0.635290
0.680390
0.721570
0.750980
0.776470
0.780390
0.776470
0.750980
0.705880
0.645100
0.580390
0.509800
0.439220
0.384310
0.354900
0.329410
0.309800
0.300000
0.300000
0.303920
0.309800
0.309800
0.309800
0.329410
0.335290
0.339220
0.345100
0.349020
0.349020
0.349020
0.349020
0.349020
0.345100
0.345100
0.339220
0.339220
0.335290
0.335290
0.349020
0.370590
0.380390
0.380390
0.380390
0.358820
0.335290
0.335290
0.345100
0.354900
0.358820
0.358820
0.354900
0.345100
0.349020
0.345100
0.354900
0.319610
0.300000
0.870590
1.503900
1.503900
1.182400
0.474510
0.394120
0.403920
0.394120
0.374510
0.370590
0.370590
0.374510
0.394120
0.400000
0.403920
0.419610
0.425490
0.429410
0.445100
0.454900
0.474510
0.500000
0.525490
0.554900
0.600000
0.645100
0.690200
0.725490
0.754900
0.770590
0.776470
0.754900
0.735290
0.705880
0.654900
0.596080
0.535290
0.480390
0.439220
0.403920
0.380390
0.370590
0.354900
0.354900
0.354900
0.358820
0.364710
0.380390
0.380390
0.384310
0.380390
0.384310
0.380390
0.390200
0.384310
0.380390
0.374510
0.370590
0.358820
0.354900
0.354900
0.358820
0.380390
0.415690
0.425490
0.445100
0.454900
0.449020
0.460780
0.425490
0.358820
0.335290
0.319610
0.309800
0.313730
0.309800
0.323530
0.319610
0.323530
0.249020
0.590200
1.503900
1.503900
1.343100
0.515690
0.394120
0.400000
0.370590
0.345100
0.323530
0.313730
0.345100
0.358820
0.354900
0.364710
0.380390
0.384310
0.394120
0.415690
0.425490
0.449020
0.470590
0.494120
0.535290
0.574510
0.615690
0.660780
0.690200
0.721570
0.741180
0.745100
0.735290
0.721570
0.676470
0.629410
0.580390
0.525490
0.490200
0.445100
0.409800
0.390200
0.380390
0.374510
0.370590
0.370590
0.374510
0.364710
0.364710
0.374510
0.380390
0.380390
0.374510
0.374510
0.380390
0.370590
0.374510
0.374510
0.374510
0.364710
0.364710
0.354900
0.349020
0.354900
0.354900
0.358820
0.380390
0.394120
0.394120
0.384310
0.374510
0.345100
0.339220
0.354900
0.374510
0.380390
0.370590
0.358820
0.349020
0.345100
0.354900
0.354900
0.354900
0.323530
0.641180
1.503900
1.503900
1.488200
0.560780
0.380390
0.400000
0.390200
0.380390
0.364710
0.354900
0.364710
0.380390
0.380390
0.394120
0.403920
0.415690
0.419610
0.435290
0.454900
0.474510
0.500000
0.519610
0.554900
0.596080
0.645100
0.680390
0.725490
0.754900
0.780390
0.790200
0.780390
0.766670
0.731370
0.680390
0.629410
0.574510
0.515690
0.464710
0.425490
0.390200
0.370590
0.358820
0.354900
0.364710
0.364710
0.358820
0.370590
0.370590
0.374510
0.380390
0.380390
0.380390
0.374510
0.370590
0.364710
0.364710
0.358820
0.354900
0.345100
0.335290
0.335290
0.345100
0.354900
0.364710
0.374510
0.364710
0.354900
0.329410
0.309800
0.313730
0.323530
0.339220
0.335290
0.335290
0.313730
0.309800
0.309800
0.313730
0.329410
0.300000
0.480390
1.121600
1.503900
1.503900
0.800000
0.319610
0.309800
0.339220
0.335290
0.335290
0.329410
0.335290
0.335290
0.345100
0.354900
0.374510
0.380390
0.384310
0.400000
0.419610
0.435290
0.460780
0.484310
0.515690
0.545100
0.596080
0.641180
0.690200
0.735290
0.754900
0.770590
0.780390
0.760780
0.735290
0.686270
0.625490
0.560780
0.494120
0.439220
0.400000
0.364710
0.339220
0.335290
0.335290
0.335290
0.329410
0.339220
0.335290
0.354900
0.364710
0.370590
0.370590
0.380390
0.374510
0.374510
0.374510
0.354900
0.349020
0.345100
0.345100
0.335290
0.335290
0.329410
0.339220
0.354900
0.374510
0.380390
0.374510
0.358820
0.335290
0.339220
0.349020
0.354900
0.354900
0.354900
0.345100
0.335290
0.335290
0.345100
0.349020
0.319610
0.303920
0.856860
1.503900
1.503900
1.202000
0.415690
0.313730
0.345100
0.354900
0.349020
0.335290
0.329410
0.335290
0.335290
0.349020
0.374510
0.390200
0.400000
0.403920
0.429410
0.445100
0.470590
0.500000
0.525490
0.554900
0.596080
0.650980
0.700000
0.750980
0.786270
0.800000
0.811760
0.800000
0.776470
0.725490
0.664710
0.600000
0.525490
0.470590
0.425490
0.384310
0.354900
0.339220
0.335290
0.335290
0.354900
0.354900
0.358820
0.358820
0.370590
0.374510
0.380390
0.380390
0.380390
0.380390
0.384310
0.380390
0.374510
0.370590
0.364710
0.354900
0.354900
0.345100
0.339220
0.349020
0.364710
0.380390
0.380390
0.370590
0.354900
0.329410
0.313730
0.335290
0.349020
0.358820
0.354900
0.349020
0.335290
0.335290
0.335290
0.339220
0.345100
0.274510
0.550980
1.452900
1.503900
1.503900
0.645100
0.400000
0.394120
0.384310
0.374510
0.354900
0.339220
0.345100
0.358820
0.374510
0.380390
0.380390
0.394120
0.400000
0.419610
0.439220
0.449020
0.474510
0.500000
0.519610
0.560780
0.609800
0.654900
0.690200
0.725490
0.745100
0.754900
0.735290
0.715690
0.690200
0.645100
0.584310
0.550980
0.494120
0.445100
0.403920
0.374510
0.354900
0.345100
0.339220
0.345100
0.349020
0.354900
0.358820
0.358820
0.364710
0.364710
0.370590
0.364710
0.370590
0.364710
0.370590
0.364710
0.358820
0.354900
0.349020
0.339220
0.329410
0.335290
0.335290
0.358820
0.380390
0.384310
0.374510
0.380390
0.335290
0.335290
0.345100
0.354900
0.364710
0.354900
0.345100
0.339220
0.335290
0.339220
0.349020
0.329410
0.294120
0.731370
1.503900
1.503900
1.292200
0.494120
0.384310
0.394120
0.380390
0.358820
0.349020
0.345100
0.354900
0.370590
0.380390
0.390200
0.403920
0.409800
0.403920
0.435290
0.454900
0.474510
0.494120
0.515690
0.550980
0.590200
0.629410
0.670590
0.715690
0.735290
0.750980
0.754900
0.745100
0.725490
0.690200
0.645100
0.590200
0.529410
0.484310
0.439220
0.409800
0.390200
0.364710
0.354900
0.358820
0.364710
0.370590
0.380390
0.384310
0.394120
0.403920
0.415690
0.425490
0.425490
0.419610
0.415690
0.419610
0.403920
0.403920
0.403920
0.390200
0.380390
0.370590
0.380390
0.394120
0.403920
0.409800
0.403920
0.400000
0.364710
0.349020
0.358820
0.374510
0.380390
0.364710
0.354900
0.339220
0.345100
0.345100
0.354900
0.358820
0.300000
0.545100
1.343100
1.503900
1.503900
0.635290
0.329410
0.364710
0.374510
0.354900
0.349020
0.335290
0.345100
0.354900
0.370590
0.364710
0.380390
0.394120
0.400000
0.403920
0.419610
0.445100
0.460780
0.490200
0.525490
0.564710
0.605880
0.650980
0.686270
0.731370
0.750980
0.754900
0.750980
0.731370
0.696080
0.654900
0.596080
0.535290
0.470590
0.425490
0.384310
0.349020
0.335290
0.323530
0.329410
0.339220
0.345100
0.339220
0.349020
0.358820
0.358820
0.364710
0.374510
0.380390
0.370590
0.370590
0.358820
0.354900
0.358820
0.354900
0.345100
0.329410
0.323530
0.323530
0.339220
0.354900
0.364710
0.358820
0.349020
0.319610
0.309800
0.323530
0.329410
0.339220
0.339220
0.339220
0.323530
0.329410
0.329410
0.335290
0.345100
0.300000
0.505880
1.288200
1.503900
1.503900
0.770590
0.349020
0.335290
0.370590
0.354900
0.358820
0.349020
0.345100
0.354900
0.364710
0.374510
0.380390
0.384310
0.394120
0.403920
0.415690
0.429410
0.454900
0.484310
0.525490
0.564710
0.609800
0.664710
0.709800
0.750980
0.770590
0.780390
0.776470
0.754900
0.715690
0.654900
0.590200
0.525490
0.460780
0.409800
0.370590
0.339220
0.319610
0.309800
0.309800
0.309800
0.329410
0.335290
0.339220
0.345100
0.354900
0.354900
0.370590
0.374510
0.374510
0.370590
0.374510
0.364710
0.358820
0.354900
0.349020
0.339220
0.345100
0.339220
0.345100
0.370590
0.380390
0.384310
0.380390
0.374510
0.345100
0.335290
0.345100
0.358820
0.364710
0.354900
0.354900
0.349020
0.345100
0.349020
0.354900
0.364710
0.300000
0.509800
1.317600
1.503900
1.503900
0.780390
0.425490
0.403920
0.400000
0.394120
0.374510
0.354900
0.358820
0.380390
0.390200
0.394120
0.394120
0.403920
0.419610
0.429410
0.445100
0.464710
0.480390
0.500000
0.535290
0.574510
0.619610
0.664710
0.705880
0.735290
0.760780
0.770590
0.754900
0.735290
0.705880
0.654900
0.600000
0.539220
0.494120
0.454900
0.409800
0.380390
0.358820
0.349020
0.349020
0.349020
0.354900
0.358820
0.370590
0.380390
0.380390
0.380390
0.380390
0.380390
0.370590
0.374510
0.370590
0.364710
0.358820
0.354900
0.354900
0.349020
0.345100
0.339220
0.349020
0.374510
0.390200
0.400000
0.390200
0.380390
0.349020
0.345100
0.354900
0.364710
0.374510
0.370590
0.374510
0.354900
0.349020
0.349020
0.354900
0.358820
0.300000
0.539220
1.378400
1.503900
1.503900
0.676470
0.400000
0.394120
0.394120
0.380390
0.358820
0.349020
0.354900
0.370590
0.380390
0.374510
0.394120
0.403920
0.409800
0.425490
0.445100
0.460780
0.474510
0.505880
0.539220
0.574510
0.619610
0.660780
0.700000
0.741180
0.770590
0.770590
0.760780
0.745100
0.705880
0.660780
0.605880
0.550980
0.490200
0.445100
0.409800
0.384310
0.364710
0.354900
0.354900
0.354900
0.358820
0.364710
0.370590
0.429410
0.625490
0.850980
0.966670
0.996080
0.529410
-0.501960
-0.501960
-0.501960
-0.492160
-0.162750
0.023529
0.188240
0.309800
0.419610
0.515690
0.564710
0.596080
0.615690
0.615690
0.625490
0.619610
0.676470
0.750980
0.811760
0.876470
0.956860
1.041200
1.127500
1.217600
1.298000
1.362700
1.407800
1.411800
1.372500
1.302000
1.196100
1.066700
0.937250
0.805880
0.680390
0.570590
0.474510
0.400000
0.345100
0.303920
0.284310
0.264710
0.254900
0.249020
0.245100
0.245100
0.239220
0.233330
0.223530
0.223530
0.223530
0.223530
0.219610
0.213730
0.213730
0.213730
0.213730
0.213730
0.219610
0.213730
0.219610
0.213730
0.223530
0.233330
0.239220
0.239220
0.239220
0.239220
0.245100
0.249020
0.254900
0.254900
0.264710
0.258820
0.268630
0.264710
0.264710
0.268630
0.268630
0.278430
0.284310
0.284310
0.294120
0.300000
0.290200
0.300000
0.303920
0.309800
0.309800
0.309800
0.313730
0.319610
0.329410
0.354900
0.374510
0.380390
0.374510
0.364710
0.349020
0.354900
0.358820
0.374510
0.380390
0.380390
0.370590
0.364710
0.364710
0.374510
0.380390
0.329410
0.490200
1.147100
1.503900
1.503900
0.966670
0.415690
0.380390
0.400000
0.380390
0.354900
0.349020
0.358820
0.358820
0.374510
0.380390
0.380390
0.380390
0.390200
0.400000
0.409800
0.425490
0.445100
0.470590
0.494120
0.535290
0.574510
0.615690
0.664710
0.715690
0.754900
0.780390
0.800000
0.805880
0.815690
0.800000
0.766670
0.709800
0.650980
0.584310
0.529410
0.480390
0.439220
0.400000
0.374510
0.364710
0.354900
0.349020
0.349020
0.354900
0.358820
0.358820
0.364710
0.358820
0.364710
0.370590
0.370590
0.358820
0.354900
0.349020
0.345100
0.339220
0.339220
0.335290
0.335290
0.349020
0.364710
0.380390
0.380390
0.374510
0.354900
0.329410
0.323530
0.335290
0.354900
0.358820
0.349020
0.335290
0.335290
0.335290
0.335290
0.339220
0.345100
0.278430
0.700000
1.503900
1.503900
1.417600
0.539220
0.380390
0.380390
0.370590
0.358820
0.345100
0.339220
0.339220
0.358820
0.374510
0.380390
0.394120
0.409800
0.425490
0.439220
0.449020
0.480390
0.500000
0.525490
0.560780
0.600000
0.650980
0.690200
0.731370
0.760780
0.776470
0.766670
0.750980
0.721570
0.680390
0.629410
0.570590
0.509800
0.454900
0.409800
0.380390
0.354900
0.335290
0.329410
0.323530
0.329410
0.335290
0.335290
0.339220
0.345100
0.349020
0.354900
0.358820
0.358820
0.364710
0.370590
0.370590
0.364710
0.364710
0.349020
0.354900
0.349020
0.345100
0.339220
0.345100
0.364710
0.384310
0.394120
0.384310
0.374510
0.349020
0.345100
0.354900
0.370590
0.380390
0.374510
0.370590
0.349020
0.345100
0.354900
0.364710
0.370590
0.313730
0.580390
1.443100
1.503900
1.503900
0.664710
0.394120
0.403920
0.394120
0.380390
0.358820
0.358820
0.358820
0.380390
0.380390
0.390200
0.400000
0.403920
0.415690
0.429410
0.449020
0.454900
0.480390
0.505880
0.539220
0.574510
0.619610
0.664710
0.705880
0.741180
0.766670
0.770590
0.754900
0.735290
0.709800
0.664710
0.605880
0.545100
0.500000
0.449020
0.403920
0.380390
0.354900
0.349020
0.345100
0.339220
0.345100
0.349020
0.354900
0.358820
0.358820
0.364710
0.374510
0.370590
0.380390
0.374510
0.370590
0.374510
0.370590
0.364710
0.354900
0.354900
0.345100
0.345100
0.358820
0.384310
0.394120
0.390200
0.380390
0.370590
0.339220
0.335290
0.345100
0.354900
0.358820
0.354900
0.339220
0.335290
0.335290
0.345100
0.349020
0.354900
0.303920
0.705880
1.503900
1.503900
1.347100
0.515690
0.374510
0.384310
0.384310
0.374510
0.358820
0.354900
0.370590
0.394120
0.409800
0.425490
0.429410
0.439220
0.449020
0.464710
0.474510
0.490200
0.509800
0.529410
0.564710
0.600000
0.635290
0.676470
0.715690
0.735290
0.750980
0.754900
0.754900
0.731370
0.690200
0.629410
0.564710
0.505880
0.449020
0.400000
0.358820
0.339220
0.319610
0.313730
0.313730
0.323530
0.329410
0.335290
0.345100
0.349020
0.354900
0.354900
0.358820
0.358820
0.358820
0.354900
0.345100
0.339220
0.335290
0.335290
0.335290
0.329410
0.323530
0.335290
0.345100
0.354900
0.364710
0.370590
0.354900
0.323530
0.309800
0.313730
0.329410
0.345100
0.339220
0.329410
0.313730
0.313730
0.309800
0.319610
0.335290
0.303920
0.474510
1.162700
1.503900
1.503900
0.835290
0.349020
0.319610
0.354900
0.349020
0.345100
0.335290
0.335290
0.345100
0.349020
0.358820
0.380390
0.380390
0.390200
0.403920
0.415690
0.425490
0.454900
0.484310
0.519610
0.564710
0.600000
0.650980
0.709800
0.750980
0.780390
0.800000
0.800000
0.780390
0.745100
0.690200
0.615690
0.550980
0.484310
0.429410
0.380390
0.349020
0.323530
0.309800
0.309800
0.319610
0.319610
0.319610
0.319610
0.335290
0.335290
0.345100
0.349020
0.358820
0.370590
0.364710
0.374510
0.364710
0.358820
0.349020
0.339220
0.339220
0.335290
0.329410
0.329410
0.349020
0.358820
0.354900
0.349020
0.339220
0.319610
0.309800
0.313730
0.323530
0.335290
0.323530
0.323530
0.319610
0.313730
0.313730
0.323530
0.329410
0.284310
0.515690
1.307800
1.503900
1.503900
0.750980
0.358820
0.349020
0.374510
0.374510
0.380390
0.358820
0.349020
0.354900
0.358820
0.380390
0.400000
0.403920
0.415690
0.429410
0.449020
0.474510
0.494120
0.519610
0.554900
0.590200
0.641180
0.686270
0.731370
0.776470
0.800000
0.811760
0.811760
0.786270
0.745100
0.696080
0.629410
0.564710
0.505880
0.454900
0.409800
0.380390
0.354900
0.339220
0.335290
0.339220
0.339220
0.354900
0.358820
0.358820
0.364710
0.370590
0.380390
0.384310
0.384310
0.380390
0.380390
0.374510
0.374510
0.364710
0.364710
0.358820
0.349020
0.345100
0.345100
0.358820
0.380390
0.390200
0.380390
0.380390
0.349020
0.335290
0.345100
0.364710
0.380390
0.374510
0.364710
0.345100
0.339220
0.339220
0.345100
0.349020
0.300000
0.429410
1.027500
1.503900
1.503900
0.992160
0.449020
0.400000
0.394120
0.374510
0.354900
0.339220
0.335290
0.349020
0.364710
0.380390
0.380390
0.400000
0.403920
0.409800
0.425490
0.445100
0.464710
0.494120
0.519610
0.560780
0.600000
0.654900
0.696080
0.731370
0.760780
0.776470
0.776470
0.754900
0.725490
0.676470
0.615690
0.560780
0.515690
0.454900
0.415690
0.380390
0.358820
0.349020
0.339220
0.345100
0.345100
0.354900
0.358820
0.358820
0.358820
0.364710
0.358820
0.364710
0.370590
0.370590
0.370590
0.354900
0.354900
0.349020
0.354900
0.345100
0.345100
0.335290
0.339220
0.358820
0.370590
0.380390
0.370590
0.358820
0.339220
0.323530
0.335290
0.345100
0.354900
0.339220
0.339220
0.323530
0.319610
0.329410
0.335290
0.339220
0.274510
0.505880
1.262700
1.503900
1.503900
0.705880
0.380390
0.370590
0.374510
0.349020
0.329410
0.323530
0.329410
0.349020
0.354900
0.354900
0.374510
0.380390
0.390200
0.409800
0.425490
0.445100
0.470590
0.494120
0.525490
0.570590
0.615690
0.660780
0.705880
0.735290
0.754900
0.760780
0.754900
0.741180
0.705880
0.654900
0.596080
0.535290
0.474510
0.429410
0.394120
0.364710
0.349020
0.335290
0.335290
0.339220
0.349020
0.358820
0.364710
0.380390
0.384310
0.394120
0.400000
0.394120
0.400000
0.394120
0.390200
0.380390
0.374510
0.370590
0.364710
0.349020
0.339220
0.335290
0.349020
0.364710
0.374510
0.380390
0.380390
0.370590
0.335290
0.335290
0.339220
0.349020
0.354900
0.345100
0.335290
0.323530
0.329410
0.329410
0.329410
0.335290
0.290200
0.560780
1.411800
1.503900
1.503900
0.625490
0.349020
0.358820
0.370590
0.354900
0.345100
0.335290
0.339220
0.349020
0.354900
0.364710
0.380390
0.400000
0.400000
0.415690
0.439220
0.449020
0.470590
0.505880
0.539220
0.574510
0.619610
0.664710
0.715690
0.750980
0.776470
0.780390
0.776470
0.745100
0.715690
0.650980
0.596080
0.525490
0.464710
0.415690
0.380390
0.345100
0.329410
0.319610
0.319610
0.335290
0.329410
0.335290
0.335290
0.345100
0.349020
0.354900
0.354900
0.364710
0.364710
0.370590
0.354900
0.349020
0.339220
0.339220
0.335290
0.329410
0.323530
0.323530
0.335290
0.349020
0.354900
0.358820
0.339220
0.329410
0.309800
0.319610
0.323530
0.335290
0.335290
0.335290
0.323530
0.309800
0.313730
0.319610
0.313730
0.329410
0.278430
0.650980
1.503900
1.503900
1.503900
0.554900
0.349020
0.370590
0.374510
0.354900
0.339220
0.329410
0.335290
0.345100
0.358820
0.364710
0.380390
0.380390
0.384310
0.400000
0.415690
0.429410
0.460780
0.490200
0.525490
0.570590
0.619610
0.676470
0.731370
0.776470
0.796080
0.800000
0.790200
0.766670
0.715690
0.650980
0.584310
0.509800
0.454900
0.409800
0.374510
0.345100
0.329410
0.319610
0.309800
0.313730
0.329410
0.335290
0.339220
0.345100
0.358820
0.354900
0.358820
0.364710
0.370590
0.364710
0.358820
0.358820
0.354900
0.354900
0.339220
0.335290
0.335290
0.329410
0.335290
0.354900
0.374510
0.380390
0.374510
0.364710
0.329410
0.323530
0.335290
0.339220
0.354900
0.349020
0.339220
0.329410
0.329410
0.335290
0.345100
0.354900
0.290200
0.439220
1.127500
1.503900
1.503900
0.937250
0.460780
0.403920
0.384310
0.380390
0.364710
0.354900
0.354900
0.358820
0.380390
0.390200
0.400000
0.403920
0.409800
0.425490
0.449020
0.470590
0.484310
0.509800
0.539220
0.574510
0.619610
0.664710
0.709800
0.745100
0.766670
0.776470
0.770590
0.750980
0.715690
0.664710
0.605880
0.545100
0.490200
0.445100
0.400000
0.370590
0.349020
0.339220
0.335290
0.335290
0.335290
0.339220
0.349020
0.354900
0.354900
0.354900
0.349020
0.358820
0.358820
0.354900
0.354900
0.354900
0.354900
0.345100
0.339220
0.339220
0.335290
0.329410
0.329410
0.339220
0.364710
0.380390
0.374510
0.364710
0.345100
0.323530
0.329410
0.335290
0.354900
0.354900
0.349020
0.345100
0.335290
0.339220
0.345100
0.354900
0.319610
0.284310
0.800000
1.503900
1.503900
1.227500
0.484310
0.390200
0.384310
0.370590
0.354900
0.335290
0.335290
0.349020
0.358820
0.374510
0.380390
0.384310
0.394120
0.403920
0.419610
0.435290
0.460780
0.484310
0.509800
0.550980
0.590200
0.641180
0.686270
0.725490
0.750980
0.766670
0.760780
0.750980
0.721570
0.680390
0.629410
0.560780
0.505880
0.454900
0.409800
0.374510
0.354900
0.345100
0.335290
0.335290
0.335290
0.335290
0.339220
0.349020
0.345100
0.354900
0.354900
0.354900
0.358820
0.358820
0.358820
0.354900
0.354900
0.349020
0.345100
0.335290
0.329410
0.323530
0.323530
0.335290
0.354900
0.374510
0.384310
0.380390
0.374510
0.358820
0.354900
0.374510
0.394120
0.400000
0.384310
0.374510
0.364710
0.364710
0.364710
0.370590
0.380390
0.323530
0.686270
1.503900
1.503900
1.503900
0.580390
0.384310
0.384310
0.370590
0.358820
0.354900
0.345100
0.349020
0.354900
0.370590
0.374510
0.380390
0.390200
0.400000
0.403920
0.425490
0.445100
0.470590
0.494120
0.535290
0.570590
0.619610
0.664710
0.705880
0.731370
0.750980
0.754900
0.745100
0.725490
0.680390
0.629410
0.564710
0.505880
0.445100
0.394120
0.358820
0.329410
0.309800
0.294120
0.300000
0.303920
0.313730
0.319610
0.329410
0.335290
0.335290
0.339220
0.339220
0.349020
0.349020
0.339220
0.335290
0.345100
0.335290
0.335290
0.329410
0.329410
0.319610
0.319610
0.323530
0.354900
0.364710
0.370590
0.354900
0.349020
0.313730
0.309800
0.335290
0.339220
0.345100
0.339220
0.329410
0.313730
0.329410
0.329410
0.335290
0.339220
0.294120
0.584310
1.502000
1.503900
1.503900
0.641180
0.349020
0.358820
0.349020
0.345100
0.339220
0.339220
0.335290
0.349020
0.354900
0.364710
0.380390
0.384310
0.390200
0.403920
0.425490
0.449020
0.460780
0.500000
0.525490
0.570590
0.629410
0.690200
0.735290
0.780390
0.805880
0.811760
0.800000
0.770590
0.721570
0.650980
0.570590
0.494120
0.429410
0.380390
0.339220
0.313730
0.294120
0.284310
0.284310
0.284310
0.300000
0.303920
0.309800
0.313730
0.319610
0.335290
0.339220
0.345100
0.349020
0.339220
0.339220
0.345100
0.345100
0.349020
0.349020
0.335290
0.323530
0.319610
0.319610
0.335290
0.358820
0.370590
0.374510
0.358820
0.339220
0.319610
0.329410
0.339220
0.354900
0.349020
0.345100
0.335290
0.335290
0.329410
0.335290
0.339220
0.303920
0.278430
0.825490
1.503900
1.503900
1.237300
0.494120
0.394120
0.384310
0.380390
0.370590
0.354900
0.349020
0.354900
0.358820
0.380390
0.380390
0.394120
0.403920
0.415690
0.435290
0.454900
0.474510
0.494120
0.515690
0.550980
0.596080
0.645100
0.690200
0.735290
0.766670
0.780390
0.790200
0.770590
0.745100
0.700000
0.645100
0.580390
0.519610
0.464710
0.419610
0.384310
0.358820
0.345100
0.335290
0.335290
0.335290
0.339220
0.345100
0.354900
0.354900
0.358820
0.374510
0.380390
0.374510
0.370590
0.374510
0.374510
0.370590
0.364710
0.370590
0.354900
0.354900
0.349020
0.354900
0.354900
0.374510
0.384310
0.400000
0.384310
0.380390
0.349020
0.339220
0.349020
0.354900
0.380390
0.370590
0.364710
0.349020
0.345100
0.349020
0.354900
0.354900
0.309800
0.409800
0.976470
1.503900
1.503900
1.027500
0.449020
0.400000
0.394120
0.390200
0.374510
0.354900
0.354900
0.349020
0.380390
0.403920
0.403920
0.409800
0.415690
0.429410
0.449020
0.464710
0.490200
0.509800
0.539220
0.574510
0.609800
0.654900
0.705880
0.741180
0.770590
0.780390
0.776470
0.766670
0.735290
0.690200
0.635290
0.580390
0.515690
0.464710
0.419610
0.390200
0.370590
0.354900
0.345100
0.345100
0.349020
0.354900
0.354900
0.364710
0.364710
0.374510
0.380390
0.374510
0.364710
0.380390
0.380390
0.374510
0.370590
0.364710
0.354900
0.349020
0.345100
0.345100
0.345100
0.339220
0.370590
0.384310
0.400000
0.384310
0.380390
0.349020
0.335290
0.335290
0.354900
0.374510
0.358820
0.354900
0.339220
0.335290
0.345100
0.345100
0.354900
0.309800
0.474510
1.111800
1.503900
1.503900
0.850980
0.400000
0.380390
0.394120
0.380390
0.354900
0.345100
0.349020
0.358820
0.380390
0.384310
0.400000
0.403920
0.419610
0.425490
0.445100
0.470590
0.494120
0.509800
0.539220
0.574510
0.619610
0.670590
0.715690
0.754900
0.780390
0.796080
0.800000
0.780390
0.754900
0.709800
0.650980
0.600000
0.545100
0.484310
0.445100
0.415690
0.384310
0.364710
0.354900
0.354900
0.354900
0.370590
0.370590
0.370590
0.374510
0.380390
0.380390
0.380390
0.374510
0.370590
0.364710
0.364710
0.358820
0.354900
0.354900
0.349020
0.349020
0.345100
0.335290
0.335290
0.349020
0.358820
0.370590
0.374510
0.364710
0.349020
0.313730
0.313730
0.335290
0.339220
0.335290
0.329410
0.319610
0.313730
0.309800
0.319610
0.335290
0.309800
0.284310
0.805880
1.503900
1.503900
1.217600
0.429410
0.329410
0.354900
0.339220
0.339220
0.323530
0.323530
0.319610
0.339220
0.349020
0.354900
0.370590
0.380390
0.390200
0.403920
0.429410
0.449020
0.470590
0.505880
0.545100
0.596080
0.645100
0.680390
0.731370
0.760780
0.780390
0.786270
0.776470
0.745100
0.696080
0.635290
0.560780
0.500000
0.439220
0.384310
0.349020
0.323530
0.303920
0.300000
0.303920
0.309800
0.319610
0.323530
0.323530
0.335290
0.339220
0.354900
0.354900
0.349020
0.354900
0.354900
0.349020
0.349020
0.345100
0.339220
0.335290
0.323530
0.319610
0.309800
0.313730
0.323530
0.349020
0.354900
0.358820
0.354900
0.354900
0.329410
0.319610
0.335290
0.354900
0.354900
0.345100
0.335290
0.323530
0.335290
0.335290
0.335290
0.345100
0.294120
0.590200
1.503900
1.503900
1.503900
0.629410
0.358820
0.374510
0.364710
0.345100
0.335290
0.323530
0.329410
0.335290
0.339220
0.354900
0.370590
0.374510
0.374510
0.394120
0.415690
0.435290
0.460780
0.490200
0.529410
0.580390
0.625490
0.680390
0.741180
0.780390
0.811760
0.821570
0.805880
0.780390
0.735290
0.676470
0.609800
0.539220
0.474510
0.429410
0.384310
0.358820
0.335290
0.329410
0.323530
0.329410
0.339220
0.349020
0.354900
0.354900
0.370590
0.374510
0.380390
0.384310
0.380390
0.380390
0.384310
0.380390
0.374510
0.370590
0.374510
0.364710
0.358820
0.354900
0.354900
0.354900
0.364710
0.390200
0.403920
0.403920
0.400000
0.384310
0.358820
0.354900
0.370590
0.384310
0.394120
0.384310
0.380390
0.370590
0.370590
0.380390
0.380390
0.384310
0.319610
0.660780
1.503900
1.503900
1.503900
0.625490
0.419610
0.409800
0.400000
0.394120
0.380390
0.364710
0.358820
0.380390
0.384310
0.390200
0.403920
0.409800
0.419610
0.435290
0.460780
0.480390
0.505880
0.519610
0.554900
0.596080
0.641180
0.690200
0.735290
0.770590
0.786270
0.796080
0.780390
0.754900
0.721570
0.660780
0.600000
0.539220
0.484310
0.439220
0.400000
0.374510
0.358820
0.349020
0.345100
0.345100
0.354900
0.354900
0.358820
0.364710
0.370590
0.380390
0.380390
0.374510
0.374510
0.370590
0.370590
0.374510
0.370590
0.364710
0.354900
0.354900
0.345100
0.339220
0.339220
0.345100
0.364710
0.380390
0.394120
0.400000
0.390200
0.364710
0.339220
0.339220
0.354900
0.370590
0.364710
0.358820
0.354900
0.345100
0.354900
0.349020
0.354900
0.319610
0.300000
0.866670
1.503900
1.503900
1.147100
0.460780
0.380390
0.380390
0.380390
0.364710
0.345100
0.345100
0.339220
0.364710
0.380390
0.384310
0.390200
0.400000
0.403920
0.419610
0.445100
0.464710
0.484310
0.515690
0.550980
0.596080
0.641180
0.690200
0.725490
0.754900
0.776470
0.780390
0.766670
0.735290
0.696080
0.641180
0.580390
0.515690
0.454900
0.403920
0.380390
0.354900
0.339220
0.335290
0.335290
0.335290
0.339220
0.345100
0.345100
0.349020
0.354900
0.364710
0.374510
0.374510
0.370590
0.364710
0.358820
0.370590
0.370590
0.354900
0.354900
0.349020
0.345100
0.339220
0.335290
0.354900
0.380390
0.394120
0.394120
0.380390
0.374510
0.345100
0.339220
0.354900
0.364710
0.370590
0.354900
0.349020
0.339220
0.339220
0.345100
0.354900
0.349020
0.313730
0.654900
1.503900
1.503900
1.492200
0.574510
0.384310
0.394120
0.394120
0.374510
0.358820
0.354900
0.354900
0.370590
0.384310
0.394120
0.403920
0.415690
0.425490
0.445100
0.470590
0.484310
0.509800
0.539220
0.570590
0.609800
0.660780
0.705880
0.750980
0.776470
0.780390
0.790200
0.786270
0.766670
0.731370
0.680390
0.615690
0.550980
0.494120
0.445100
0.403920
0.364710
0.349020
0.335290
0.335290
0.335290
0.339220
0.339220
0.354900
0.354900
0.364710
0.374510
0.370590
0.370590
0.364710
0.364710
0.370590
0.358820
0.354900
0.349020
0.345100
0.339220
0.339220
0.335290
0.329410
0.335290
0.354900
0.364710
0.364710
0.364710
0.349020
0.313730
0.309800
0.313730
0.335290
0.339220
0.335290
0.335290
0.323530
0.319610
0.323530
0.319610
0.329410
0.300000
0.596080
1.478400
1.503900
1.503900
0.609800
0.335290
0.354900
0.358820
0.349020
0.339220
0.335290
0.335290
0.339220
0.354900
0.354900
0.364710
0.384310
0.394120
0.403920
0.425490
0.439220
0.470590
0.500000
0.529410
0.574510
0.625490
0.670590
0.715690
0.766670
0.786270
0.796080
0.780390
0.770590
0.731370
0.670590
0.600000
0.529410
0.464710
0.403920
0.364710
0.339220
0.319610
0.309800
0.309800
0.309800
0.319610
0.313730
0.323530
0.335290
0.335290
0.345100
0.354900
0.354900
0.358820
0.364710
0.354900
0.345100
0.339220
0.339220
0.335290
0.339220
0.335290
0.329410
0.335290
0.345100
0.358820
0.374510
0.370590
0.358820
0.349020
0.323530
0.313730
0.335290
0.335290
0.335290
0.335290
0.329410
0.313730
0.313730
0.319610
0.329410
0.319610
0.274510
0.574510
1.503900
1.503900
1.503900
0.605880
0.335290
0.345100
0.354900
0.358820
0.354900
0.349020
0.339220
0.345100
0.354900
0.380390
0.390200
0.403920
0.409800
0.425490
0.445100
0.470590
0.494120
0.519610
0.554900
0.596080
0.645100
0.696080
0.745100
0.796080
0.815690
0.821570
0.825490
0.796080
0.750980
0.690200
0.629410
0.554900
0.490200
0.435290
0.400000
0.370590
0.345100
0.335290
0.335290
0.335290
0.335290
0.339220
0.354900
0.358820
0.370590
0.374510
0.370590
0.374510
0.380390
0.374510
0.374510
0.380390
0.370590
0.370590
0.364710
0.354900
0.354900
0.354900
0.345100
0.349020
0.364710
0.390200
0.400000
0.394120
0.390200
0.358820
0.345100
0.354900
0.358820
0.380390
0.374510
0.374510
0.349020
0.345100
0.349020
0.354900
0.358820
0.300000
0.425490
1.051000
1.503900
1.503900
0.982350
0.454900
0.409800
0.400000
0.390200
0.380390
0.354900
0.354900
0.358820
0.380390
0.384310
0.390200
0.403920
0.415690
0.419610
0.445100
0.464710
0.480390
0.500000
0.519610
0.560780
0.605880
0.654900
0.700000
0.735290
0.766670
0.780390
0.780390
0.760780
0.731370
0.680390
0.629410
0.574510
0.509800
0.460780
0.419610
0.380390
0.358820
0.345100
0.339220
0.339220
0.349020
0.349020
0.354900
0.354900
0.358820
0.358820
0.358820
0.374510
0.370590
0.374510
0.374510
0.380390
0.370590
0.364710
0.354900
0.354900
0.349020
0.339220
0.339220
0.349020
0.364710
0.380390
0.394120
0.390200
0.380390
0.354900
0.345100
0.345100
0.354900
0.374510
0.358820
0.354900
0.349020
0.349020
0.349020
0.354900
0.354900
0.303920
0.300000
0.966670
1.503900
1.503900
1.005900
0.435290
0.390200
0.394120
0.380390
0.358820
0.345100
0.335290
0.345100
0.370590
0.380390
0.394120
0.403920
0.415690
0.415690
0.435290
0.460780
0.480390
0.500000
0.519610
0.554900
0.605880
0.654900
0.700000
0.731370
0.754900
0.776470
0.776470
0.766670
0.741180
0.690200
0.635290
0.580390
0.519610
0.470590
0.425490
0.394120
0.370590
0.354900
0.354900
0.354900
0.358820
0.380390
0.380390
0.394120
0.394120
0.394120
0.400000
0.403920
0.403920
0.403920
0.403920
0.400000
0.390200
0.380390
0.380390
0.380390
0.374510
0.358820
0.354900
0.354900
0.380390
0.394120
0.400000
0.390200
0.380390
0.354900
0.345100
0.339220
0.354900
0.370590
0.364710
0.358820
0.339220
0.345100
0.339220
0.349020
0.354900
0.313730
0.429410
1.037300
1.503900
1.503900
0.915690
0.374510
0.335290
0.364710
0.358820
0.349020
0.335290
0.335290
0.345100
0.354900
0.354900
0.370590
0.380390
0.400000
0.400000
0.409800
0.429410
0.454900
0.480390
0.515690
0.550980
0.596080
0.641180
0.690200
0.725490
0.750980
0.766670
0.780390
0.766670
0.731370
0.680390
0.619610
0.550980
0.480390
0.419610
0.374510
0.345100
0.319610
0.309800
0.294120
0.300000
0.300000
0.309800
0.319610
0.323530
0.335290
0.335290
0.349020
0.345100
0.339220
0.345100
0.339220
0.335290
0.339220
0.329410
0.319610
0.319610
0.313730
0.309800
0.303920
0.313730
0.339220
0.349020
0.354900
0.354900
0.345100
0.313730
0.309800
0.323530
0.335290
0.339220
0.335290
0.335290
0.323530
0.319610
0.313730
0.329410
0.329410
0.284310
0.529410
1.388200
1.503900
1.503900
0.725490
0.370590
0.380390
0.374510
0.354900
0.345100
0.335290
0.335290
0.335290
0.349020
0.358820
0.370590
0.374510
0.380390
0.390200
0.415690
0.425490
0.445100
0.474510
0.509800
0.560780
0.615690
0.664710
0.721570
0.766670
0.790200
0.800000
0.800000
0.776470
0.735290
0.680390
0.615690
0.550980
0.484310
0.429410
0.380390
0.354900
0.345100
0.335290
0.323530
0.323530
0.335290
0.345100
0.349020
0.349020
0.354900
0.364710
0.370590
0.374510
0.374510
0.374510
0.374510
0.380390
0.370590
0.364710
0.354900
0.354900
0.349020
0.345100
0.339220
0.349020
0.370590
0.390200
0.400000
0.390200
0.384310
0.358820
0.349020
0.354900
0.364710
0.374510
0.370590
0.358820
0.345100
0.345100
0.354900
0.358820
0.358820
0.300000
0.454900
1.151000
1.503900
1.503900
0.890200
0.439220
0.409800
0.394120
0.380390
0.364710
0.354900
0.349020
0.354900
0.374510
0.384310
0.380390
0.400000
0.403920
0.415690
0.429410
0.454900
0.474510
0.500000
0.519610
0.550980
0.596080
0.650980
0.690200
0.731370
0.754900
0.770590
0.776470
0.754900
0.725490
0.686270
0.625490
0.570590
0.509800
0.454900
0.415690
0.380390
0.358820
0.345100
0.335290
0.345100
0.345100
0.349020
0.354900
0.354900
0.358820
0.358820
0.358820
0.358820
0.370590
0.358820
0.364710
0.358820
0.358820
0.354900
0.354900
0.354900
0.345100
0.339220
0.345100
0.335290
0.354900
0.374510
0.384310
0.390200
0.380390
0.358820
0.339220
0.345100
0.358820
0.380390
0.370590
0.364710
0.354900
0.345100
0.349020
0.354900
0.364710
0.323530
0.309800
0.870590
1.503900
1.503900
1.121600
0.454900
0.390200
0.394120
0.384310
0.370590
0.349020
0.339220
0.335290
0.358820
0.380390
0.394120
0.403920
0.409800
0.419610
0.429410
0.454900
0.480390
0.500000
0.525490
0.560780
0.600000
0.645100
0.686270
0.725490
0.766670
0.786270
0.790200
0.780390
0.750980
0.709800
0.650980
0.596080
0.539220
0.480390
0.435290
0.403920
0.374510
0.354900
0.349020
0.349020
0.349020
0.354900
0.354900
0.354900
0.354900
0.364710
0.370590
0.374510
0.374510
0.374510
0.370590
0.364710
0.354900
0.354900
0.354900
0.349020
0.349020
0.339220
0.339220
0.345100
0.358820
0.380390
0.390200
0.384310
0.380390
0.349020
0.345100
0.358820
0.380390
0.394120
0.394120
0.394120
0.380390
0.370590
0.374510
0.380390
0.384310
0.329410
0.490200
1.162700
1.503900
1.503900
0.856860
0.394120
0.370590
0.384310
0.370590
0.358820
0.345100
0.345100
0.354900
0.358820
0.380390
0.374510
0.384310
0.400000
0.403920
0.419610
0.445100
0.470590
0.494120
0.519610
0.550980
0.596080
0.645100
0.690200
0.725490
0.750980
0.766670
0.776470
0.766670
0.735290
0.686270
0.619610
0.560780
0.490200
0.439220
0.394120
0.358820
0.335290
0.319610
0.313730
0.313730
0.329410
0.329410
0.335290
0.339220
0.339220
0.339220
0.349020
0.354900
0.354900
0.354900
0.339220
0.335290
0.329410
0.319610
0.300000
0.303920
0.313730
0.349020
0.374510
0.419610
0.449020
0.425490
0.374510
0.329410
0.294120
0.284310
0.274510
0.284310
0.284310
0.284310
0.300000
0.303920
0.309800
0.219610
0.419610
1.252900
1.503900
1.503900
0.680390
0.345100
0.354900
0.329410
0.309800
0.294120
0.290200
0.294120
0.309800
0.323530
0.329410
0.349020
0.358820
0.374510
0.394120
0.419610
0.435290
0.460780
0.490200
0.519610
0.560780
0.615690
0.670590
0.721570
0.766670
0.786270
0.800000
0.796080
0.776470
0.721570
0.664710
0.605880
0.529410
0.470590
0.415690
0.370590
0.339220
0.323530
0.319610
0.313730
0.319610
0.329410
0.335290
0.335290
0.345100
0.345100
0.354900
0.358820
0.354900
0.354900
0.349020
0.345100
0.339220
0.345100
0.335290
0.329410
0.319610
0.319610
0.319610
0.313730
0.313730
0.319610
0.313730
0.319610
0.335290
0.358820
0.370590
0.370590
0.364710
0.345100
0.329410
0.335290
0.354900
0.364710
0.358820
0.358820
0.349020
0.349020
0.349020
0.354900
0.358820
0.309800
0.490200
1.196100
1.503900
1.503900
0.856860
0.394120
0.380390
0.400000
0.390200
0.380390
0.374510
0.370590
0.364710
0.374510
0.390200
0.403920
0.409800
0.419610
0.429410
0.449020
0.470590
0.494120
0.519610
0.545100
0.574510
0.625490
0.676470
0.731370
0.780390
0.811760
0.825490
0.831370
0.815690
0.786270
0.741180
0.676470
0.609800
0.550980
0.490200
0.435290
0.400000
0.374510
0.354900
0.345100
0.339220
0.345100
0.354900
0.358820
0.364710
0.364710
0.374510
0.380390
0.384310
0.384310
0.384310
0.384310
0.380390
0.370590
0.358820
0.354900
0.354900
0.349020
0.345100
0.339220
0.339220
0.358820
0.380390
0.394120
0.390200
0.380390
0.358820
0.335290
0.345100
0.354900
0.374510
0.364710
0.354900
0.345100
0.339220
0.345100
0.345100
0.349020
0.300000
0.294120
0.950980
1.503900
1.503900
1.027500
0.439220
0.390200
0.380390
0.370590
0.354900
0.345100
0.345100
0.339220
0.354900
0.370590
0.380390
0.390200
0.403920
0.403920
0.419610
0.449020
0.474510
0.500000
0.529410
0.564710
0.605880
0.654900
0.700000
0.735290
0.776470
0.786270
0.780390
0.766670
0.745100
0.700000
0.641180
0.580390
0.525490
0.470590
0.425490
0.390200
0.364710
0.349020
0.339220
0.339220
0.335290
0.345100
0.354900
0.354900
0.354900
0.364710
0.364710
0.358820
0.364710
0.354900
0.354900
0.354900
0.354900
0.354900
0.349020
0.345100
0.339220
0.345100
0.339220
0.345100
0.364710
0.380390
0.390200
0.380390
0.374510
0.349020
0.339220
0.339220
0.354900
0.374510
0.358820
0.354900
0.335290
0.335290
0.335290
0.329410
0.349020
0.300000
0.525490
1.302000
1.503900
1.503900
0.715690
0.384310
0.370590
0.384310
0.374510
0.354900
0.345100
0.339220
0.354900
0.374510
0.390200
0.403920
0.409800
0.429410
0.454900
0.474510
0.494120
0.525490
0.545100
0.570590
0.600000
0.645100
0.690200
0.731370
0.754900
0.780390
0.780390
0.786270
0.770590
0.735290
0.686270
0.619610
0.560780
0.494120
0.439220
0.394120
0.354900
0.335290
0.319610
0.313730
0.313730
0.323530
0.329410
0.335290
0.335290
0.335290
0.345100
0.345100
0.349020
0.354900
0.354900
0.339220
0.335290
0.335290
0.323530
0.323530
0.319610
0.313730
0.309800
0.309800
0.329410
0.339220
0.349020
0.345100
0.345100
0.319610
0.294120
0.300000
0.309800
0.323530
0.313730
0.309800
0.300000
0.300000
0.303920
0.309800
0.323530
0.284310
0.403920
0.996080
1.503900
1.503900
0.976470
0.364710
0.309800
0.345100
0.335290
0.335290
0.335290
0.335290
0.329410
0.345100
0.354900
0.358820
0.374510
0.384310
0.394120
0.415690
0.435290
0.460780
0.490200
0.509800
0.550980
0.600000
0.645100
0.705880
0.760780
0.796080
0.811760
0.815690
0.800000
0.766670
0.709800
0.645100
0.570590
0.500000
0.439220
0.384310
0.339220
0.319610
0.300000
0.294120
0.303920
0.309800
0.309800
0.309800
0.313730
0.309800
0.329410
0.335290
0.345100
0.349020
0.354900
0.349020
0.345100
0.339220
0.339220
0.339220
0.345100
0.339220
0.335290
0.329410
0.319610
0.335290
0.354900
0.370590
0.354900
0.354900
0.329410
0.313730
0.323530
0.335290
0.349020
0.335290
0.335290
0.329410
0.335290
0.335290
0.345100
0.345100
0.284310
0.494120
1.266700
1.503900
1.503900
0.815690
0.354900
0.335290
0.354900
0.335290
0.329410
0.309800
0.309800
0.313730
0.329410
0.345100
0.358820
0.374510
0.380390
0.400000
0.425490
0.449020
0.470590
0.500000
0.529410
0.574510
0.625490
0.686270
0.741180
0.786270
0.821570
0.831370
0.825490
0.811760
0.776470
0.715690
0.645100
0.580390
0.509800
0.445100
0.403920
0.364710
0.345100
0.335290
0.323530
0.319610
0.335290
0.335290
0.345100
0.349020
0.349020
0.354900
0.358820
0.370590
0.370590
0.374510
0.374510
0.374510
0.370590
0.364710
0.354900
0.354900
0.349020
0.335290
0.329410
0.335290
0.349020
0.374510
0.380390
0.384310
0.380390
0.358820
0.339220
0.339220
0.354900
0.370590
0.364710
0.354900
0.358820
0.339220
0.345100
0.349020
0.354900
0.309800
0.284310
0.876470
1.503900
1.503900
1.186300
0.500000
0.403920
0.394120
0.380390
0.354900
0.339220
0.345100
0.354900
0.374510
0.384310
0.384310
0.394120
0.409800
0.425490
0.445100
0.460780
0.480390
0.500000
0.529410
0.564710
0.605880
0.654900
0.700000
0.745100
0.776470
0.796080
0.800000
0.786270
0.760780
0.709800
0.654900
0.590200
0.529410
0.470590
0.435290
0.400000
0.370590
0.354900
0.354900
0.345100
0.345100
0.349020
0.354900
0.349020
0.354900
0.358820
0.364710
0.370590
0.370590
0.364710
0.358820
0.354900
0.358820
0.358820
0.358820
0.354900
0.349020
0.345100
0.335290
0.339220
0.354900
0.374510
0.384310
0.384310
0.380390
0.349020
0.335290
0.339220
0.349020
0.364710
0.364710
0.354900
0.345100
0.339220
0.345100
0.345100
0.354900
0.303920
0.439220
1.021600
1.503900
1.503900
0.982350
0.445100
0.394120
0.384310
0.370590
0.354900
0.345100
0.339220
0.354900
0.370590
0.380390
0.394120
0.403920
0.409800
0.419610
0.439220
0.464710
0.490200
0.505880
0.529410
0.564710
0.619610
0.660780
0.715690
0.750980
0.780390
0.786270
0.790200
0.780390
0.750980
0.709800
0.660780
0.605880
0.550980
0.500000
0.454900
0.425490
0.403920
0.384310
0.380390
0.380390
0.380390
0.380390
0.384310
0.380390
0.380390
0.380390
0.390200
0.394120
0.390200
0.394120
0.390200
0.384310
0.380390
0.380390
0.364710
0.354900
0.349020
0.349020
0.345100
0.349020
0.370590
0.380390
0.380390
0.380390
0.364710
0.329410
0.323530
0.335290
0.349020
0.354900
0.349020
0.339220
0.335290
0.335290
0.335290
0.335290
0.313730
0.284310
0.660780
1.503900
1.503900
1.468600
0.519610
0.335290
0.358820
0.358820
0.349020
0.354900
0.335290
0.339220
0.349020
0.354900
0.364710
0.384310
0.403920
0.403920
0.409800
0.425490
0.449020
0.474510
0.505880
0.539220
0.580390
0.629410
0.680390
0.725490
0.770590
0.790200
0.796080
0.786270
0.770590
0.715690
0.650980
0.584310
0.509800
0.449020
0.394120
0.354900
0.335290
0.309800
0.294120
0.300000
0.303920
0.313730
0.319610
0.323530
0.335290
0.339220
0.354900
0.354900
0.349020
0.349020
0.354900
0.354900
0.354900
0.345100
0.335290
0.329410
0.323530
0.313730
0.313730
0.323530
0.335290
0.354900
0.358820
0.354900
0.349020
0.329410
0.309800
0.313730
0.335290
0.339220
0.329410
0.335290
0.335290
0.329410
0.345100
0.345100
0.349020
0.290200
0.470590
1.211800
1.503900
1.503900
0.886270
0.394120
0.374510
0.384310
0.358820
0.354900
0.345100
0.339220
0.354900
0.354900
0.364710
0.374510
0.380390
0.390200
0.403920
0.409800
0.425490
0.445100
0.480390
0.519610
0.564710
0.615690
0.664710
0.725490
0.776470
0.800000
0.811760
0.815690
0.796080
0.745100
0.680390
0.605880
0.539220
0.480390
0.419610
0.374510
0.349020
0.335290
0.319610
0.309800
0.309800
0.319610
0.335290
0.339220
0.349020
0.349020
0.354900
0.364710
0.380390
0.380390
0.380390
0.380390
0.374510
0.370590
0.370590
0.358820
0.354900
0.354900
0.349020
0.345100
0.358820
0.380390
0.394120
0.400000
0.384310
0.370590
0.345100
0.339220
0.354900
0.370590
0.380390
0.370590
0.354900
0.349020
0.349020
0.349020
0.358820
0.335290
0.290200
0.670590
1.503900
1.503900
1.503900
0.605880
0.419610
0.409800
0.394120
0.380390
0.358820
0.354900
0.364710
0.380390
0.394120
0.384310
0.400000
0.409800
0.415690
0.425490
0.445100
0.470590
0.500000
0.515690
0.550980
0.584310
0.641180
0.690200
0.731370
0.766670
0.780390
0.790200
0.780390
0.754900
0.715690
0.660780
0.596080
0.529410
0.480390
0.429410
0.394120
0.364710
0.349020
0.335290
0.335290
0.335290
0.335290
0.339220
0.345100
0.349020
0.345100
0.349020
0.354900
0.354900
0.354900
0.354900
0.349020
0.354900
0.349020
0.349020
0.345100
0.339220
0.339220
0.335290
0.339220
0.358820
0.380390
0.380390
0.380390
0.374510
0.345100
0.335290
0.339220
0.358820
0.370590
0.358820
0.354900
0.339220
0.339220
0.345100
0.349020
0.354900
0.294120
0.525490
1.311800
1.503900
1.503900
0.725490
0.400000
0.390200
0.380390
0.374510
0.354900
0.339220
0.335290
0.354900
0.370590
0.380390
0.384310
0.400000
0.403920
0.419610
0.435290
0.464710
0.484310
0.505880
0.539220
0.574510
0.619610
0.664710
0.709800
0.750980
0.776470
0.790200
0.786270
0.770590
0.741180
0.686270
0.629410
0.570590
0.509800
0.454900
0.419610
0.384310
0.364710
0.354900
0.349020
0.349020
0.349020
0.354900
0.364710
0.370590
0.380390
0.380390
0.384310
0.384310
0.384310
0.384310
0.384310
0.380390
0.374510
0.374510
0.364710
0.364710
0.364710
0.364710
0.380390
0.403920
0.425490
0.429410
0.425490
0.419610
0.394120
0.370590
0.380390
0.394120
0.394120
0.384310
0.380390
0.364710
0.364710
0.358820
0.364710
0.374510
0.319610
0.519610
1.247100
1.503900
1.503900
0.825490
0.415690
0.390200
0.394120
0.374510
0.364710
0.345100
0.354900
0.354900
0.370590
0.374510
0.384310
0.394120
0.394120
0.403920
0.425490
0.445100
0.470590
0.484310
0.515690
0.560780
0.609800
0.654900
0.700000
0.741180
0.766670
0.780390
0.780390
0.754900
0.721570
0.664710
0.605880
0.539220
0.474510
0.425490
0.374510
0.354900
0.329410
0.319610
0.313730
0.309800
0.319610
0.323530
0.329410
0.335290
0.339220
0.345100
0.349020
0.354900
0.364710
0.354900
0.349020
0.345100
0.335290
0.335290
0.319610
0.313730
0.313730
0.309800
0.319610
0.329410
0.335290
0.335290
0.329410
0.309800
0.294120
0.300000
0.309800
0.319610
0.329410
0.313730
0.303920
0.309800
0.309800
0.313730
0.323530
0.294120
0.268630
0.856860
1.503900
1.503900
1.192200
0.435290
0.335290
0.354900
0.345100
0.335290
0.329410
0.323530
0.335290
0.339220
0.345100
0.354900
0.370590
0.374510
0.390200
0.403920
0.425490
0.449020
0.480390
0.519610
0.564710
0.609800
0.664710
0.721570
0.770590
0.805880
0.825490
0.835290
0.821570
0.786270
0.731370
0.650980
0.570590
0.494120
0.429410
0.374510
0.339220
0.313730
0.294120
0.284310
0.284310
0.284310
0.284310
0.290200
0.294120
0.300000
0.309800
0.319610
0.323530
0.329410
0.335290
0.335290
0.339220
0.339220
0.345100
0.339220
0.335290
0.335290
0.335290
0.335290
0.345100
0.364710
0.374510
0.370590
0.370590
0.345100
0.319610
0.323530
0.335290
0.349020
0.354900
0.345100
0.329410
0.329410
0.329410
0.335290
0.349020
0.313730
0.284310
0.841180
1.503900
1.503900
1.231400
0.484310
0.384310
0.394120
0.374510
0.364710
0.354900
0.354900
0.354900
0.370590
0.380390
0.384310
0.400000
0.409800
0.419610
0.429410
0.449020
0.470590
0.494120
0.525490
0.560780
0.600000
0.650980
0.705880
0.745100
0.786270
0.805880
0.811760
0.796080
0.770590
0.715690
0.654900
0.584310
0.529410
0.470590
0.425490
0.384310
0.358820
0.345100
0.335290
0.329410
0.335290
0.339220
0.345100
0.354900
0.349020
0.364710
0.370590
0.370590
0.374510
0.370590
0.370590
0.364710
0.358820
0.358820
0.354900
0.354900
0.354900
0.349020
0.345100
0.349020
0.380390
0.390200
0.394120
0.390200
0.374510
0.345100
0.339220
0.345100
0.354900
0.358820
0.354900
0.345100
0.335290
0.335290
0.335290
0.339220
0.349020
0.290200
0.574510
1.468600
1.503900
1.503900
0.625490
0.400000
0.390200
0.380390
0.364710
0.339220
0.335290
0.335290
0.354900
0.364710
0.374510
0.390200
0.400000
0.403920
0.419610
0.449020
0.460780
0.484310
0.505880
0.539220
0.584310
0.629410
0.676470
0.721570
0.760780
0.780390
0.786270
0.780390
0.754900
0.721570
0.660780
0.600000
0.539220
0.480390
0.435290
0.400000
0.370590
0.349020
0.339220
0.335290
0.335290
0.345100
0.345100
0.349020
0.354900
0.364710
0.364710
0.370590
0.370590
0.370590
0.374510
0.370590
0.364710
0.354900
0.354900
0.354900
0.354900
0.354900
0.354900
0.358820
0.380390
0.400000
0.403920
0.394120
0.380390
0.349020
0.339220
0.358820
0.384310
0.400000
0.390200
0.384310
0.380390
0.380390
0.390200
0.394120
0.403920
0.349020
0.570590
1.347100
1.503900
1.503900
0.760780
0.419610
0.403920
0.394120
0.380390
0.364710
0.354900
0.354900
0.358820
0.374510
0.384310
0.394120
0.400000
0.409800
0.425490
0.439220
0.454900
0.474510
0.500000
0.539220
0.574510
0.625490
0.670590
0.715690
0.754900
0.780390
0.780390
0.780390
0.750980
0.721570
0.664710
0.605880
0.539220
0.480390
0.425490
0.384310
0.354900
0.335290
0.319610
0.319610
0.323530
0.335290
0.329410
0.335290
0.335290
0.339220
0.349020
0.349020
0.345100
0.354900
0.354900
0.354900
0.339220
0.335290
0.329410
0.323530
0.319610
0.309800
0.309800
0.329410
0.339220
0.354900
0.349020
0.345100
0.329410
0.303920
0.303920
0.313730
0.335290
0.329410
0.335290
0.329410
0.323530
0.323530
0.329410
0.335290
0.313730
0.284310
0.766670
1.503900
1.503900
1.347100
0.484310
0.335290
0.354900
0.345100
0.345100
0.329410
0.313730
0.329410
0.335290
0.339220
0.354900
0.358820
0.370590
0.380390
0.394120
0.409800
0.419610
0.439220
0.474510
0.519610
0.574510
0.629410
0.680390
0.735290
0.780390
0.800000
0.811760
0.800000
0.776470
0.721570
0.650980
0.580390
0.505880
0.435290
0.380390
0.345100
0.319610
0.303920
0.303920
0.309800
0.309800
0.309800
0.309800
0.313730
0.329410
0.335290
0.335290
0.349020
0.349020
0.345100
0.339220
0.335290
0.335290
0.323530
0.313730
0.309800
0.303920
0.294120
0.290200
0.303920
0.329410
0.339220
0.345100
0.345100
0.329410
0.309800
0.309800
0.323530
0.339220
0.345100
0.345100
0.339220
0.335290
0.335290
0.345100
0.345100
0.349020
0.290200
0.745100
1.503900
1.503900
1.378400
0.509800
0.358820
0.380390
0.370590
0.370590
0.354900
0.339220
0.349020
0.354900
0.370590
0.384310
0.394120
0.403920
0.419610
0.435290
0.454900
0.470590
0.494120
0.529410
0.564710
0.605880
0.660780
0.709800
0.754900
0.796080
0.805880
0.815690
0.805880
0.786270
0.731370
0.670590
0.600000
0.525490
0.470590
0.415690
0.374510
0.339220
0.323530
0.313730
0.313730
0.313730
0.323530
0.335290
0.339220
0.345100
0.354900
0.354900
0.370590
0.364710
0.370590
0.374510
0.374510
0.380390
0.364710
0.364710
0.354900
0.354900
0.354900
0.349020
0.345100
0.380390
0.390200
0.400000
0.384310
0.380390
0.349020
0.335290
0.354900
0.370590
0.374510
0.364710
0.354900
0.335290
0.339220
0.339220
0.349020
0.354900
0.278430
0.529410
1.321600
1.503900
1.503900
0.745100
0.425490
0.403920
0.380390
0.370590
0.339220
0.335290
0.335290
0.354900
0.364710
0.374510
0.384310
0.400000
0.403920
0.415690
0.429410
0.449020
0.474510
0.500000
0.525490
0.564710
0.615690
0.664710
0.715690
0.754900
0.780390
0.786270
0.796080
0.760780
0.721570
0.670590
0.605880
0.550980
0.494120
0.449020
0.409800
0.374510
0.354900
0.339220
0.335290
0.335290
0.335290
0.335290
0.349020
0.349020
0.354900
0.358820
0.358820
0.364710
0.358820
0.354900
0.354900
0.358820
0.354900
0.349020
0.349020
0.349020
0.339220
0.335290
0.339220
0.358820
0.380390
0.384310
0.380390
0.370590
0.349020
0.335290
0.339220
0.349020
0.358820
0.354900
0.345100
0.335290
0.335290
0.335290
0.335290
0.345100
0.290200
0.449020
1.102000
1.503900
1.503900
0.866670
0.415690
0.390200
0.384310
0.370590
0.349020
0.335290
0.335290
0.349020
0.358820
0.364710
0.384310
0.403920
0.419610
0.439220
0.454900
0.484310
0.515690
0.535290
0.564710
0.596080
0.645100
0.696080
0.731370
0.776470
0.796080
0.800000
0.800000
0.786270
0.750980
0.709800
0.645100
0.580390
0.519610
0.460780
0.419610
0.390200
0.364710
0.354900
0.345100
0.349020
0.339220
0.354900
0.354900
0.354900
0.364710
0.370590
0.374510
0.374510
0.370590
0.374510
0.374510
0.364710
0.370590
0.354900
0.349020
0.345100
0.335290
0.329410
0.335290
0.345100
0.354900
0.358820
0.354900
0.354900
0.335290
0.313730
0.323530
0.335290
0.345100
0.339220
0.335290
0.323530
0.323530
0.319610
0.335290
0.339220
0.284310
0.354900
0.835290
1.503900
1.503900
1.186300
0.429410
0.339220
0.370590
0.358820
0.349020
0.339220
0.335290
0.349020
0.354900
0.358820
0.374510
0.384310
0.394120
0.394120
0.409800
0.429410
0.454900
0.470590
0.494120
0.539220
0.584310
0.641180
0.696080
0.735290
0.780390
0.800000
0.800000
0.786270
0.754900
0.709800
0.641180
0.574510
0.500000
0.435290
0.374510
0.345100
0.319610
0.300000
0.290200
0.290200
0.300000
0.294120
0.313730
0.309800
0.319610
0.335290
0.335290
0.335290
0.339220
0.335290
0.335290
0.323530
0.335290
0.329410
0.323530
0.329410
0.323530
0.323530
0.323530
0.339220
0.354900
0.358820
0.354900
0.364710
0.339220
0.319610
0.323530
0.335290
0.339220
0.335290
0.335290
0.323530
0.309800
0.309800
0.313730
0.335290
0.294120
0.278430
0.915690
1.503900
1.503900
1.162700
0.425490
0.345100
0.364710
0.345100
0.335290
0.323530
0.323530
0.329410
0.335290
0.335290
0.349020
0.349020
0.354900
0.364710
0.380390
0.400000
0.419610
0.445100
0.484310
0.529410
0.584310
0.645100
0.705880
0.766670
0.800000
0.821570
0.831370
0.821570
0.786270
0.725490
0.660780
0.584310
0.509800
0.454900
0.400000
0.364710
0.335290
0.319610
0.309800
0.309800
0.313730
0.323530
0.335290
0.335290
0.345100
0.354900
0.354900
0.358820
0.370590
0.364710
0.374510
0.380390
0.364710
0.364710
0.354900
0.354900
0.354900
0.345100
0.349020
0.354900
0.370590
0.380390
0.390200
0.380390
0.374510
0.345100
0.335290
0.339220
0.349020
0.358820
0.354900
0.349020
0.335290
0.339220
0.339220
0.345100
0.349020
0.278430
0.435290
1.060800
1.503900
1.503900
0.960780
0.454900
0.409800
0.400000
0.380390
0.354900
0.335290
0.345100
0.358820
0.374510
0.380390
0.390200
0.394120
0.400000
0.403920
0.425490
0.439220
0.460780
0.484310
0.515690
0.554900
0.605880
0.654900
0.705880
0.745100
0.776470
0.790200
0.786270
0.776470
0.735290
0.690200
0.635290
0.580390
0.519610
0.460780
0.419610
0.390200
0.370590
0.354900
0.345100
0.354900
0.354900
0.354900
0.354900
0.354900
0.358820
0.358820
0.364710
0.374510
0.374510
0.370590
0.370590
0.364710
0.370590
0.370590
0.364710
0.354900
0.354900
0.354900
0.354900
0.358820
0.380390
0.394120
0.400000
0.384310
0.370590
0.335290
0.335290
0.345100
0.358820
0.364710
0.354900
0.345100
0.335290
0.335290
0.339220
0.349020
0.339220
0.294120
0.590200
1.482400
1.503900
1.503900
0.615690
0.390200
0.390200
0.374510
0.354900
0.335290
0.319610
0.329410
0.345100
0.354900
0.358820
0.380390
0.394120
0.403920
0.419610
0.435290
0.454900
0.474510
0.500000
0.535290
0.574510
0.619610
0.670590
0.715690
0.754900
0.780390
0.786270
0.776470
0.754900
0.735290
0.690200
0.629410
0.574510
0.525490
0.470590
0.429410
0.403920
0.394120
0.380390
0.374510
0.380390
0.380390
0.380390
0.380390
0.380390
0.384310
0.380390
0.384310
0.384310
0.384310
0.380390
0.380390
0.380390
0.380390
0.374510
0.364710
0.354900
0.354900
0.349020
0.349020
0.370590
0.374510
0.380390
0.380390
0.374510
0.349020
0.335290
0.335290
0.345100
0.354900
0.354900
0.349020
0.335290
0.329410
0.335290
0.335290
0.345100
0.319610
0.294120
0.870590
1.503900
1.503900
1.162700
0.425490
0.345100
0.364710
0.349020
0.345100
0.329410
0.319610
0.335290
0.345100
0.354900
0.358820
0.380390
0.380390
0.394120
0.409800
0.425490
0.445100
0.474510
0.505880
0.535290
0.580390
0.629410
0.686270
0.731370
0.754900
0.780390
0.790200
0.776470
0.745100
0.705880
0.641180
0.564710
0.494120
0.439220
0.384310
0.354900
0.329410
0.309800
0.303920
0.309800
0.303920
0.309800
0.309800
0.323530
0.345100
0.345100
0.345100
0.354900
0.345100
0.349020
0.349020
0.339220
0.345100
0.335290
0.329410
0.329410
0.319610
0.313730
0.319610
0.339220
0.349020
0.354900
0.345100
0.349020
0.323530
0.309800
0.319610
0.323530
0.339220
0.335290
0.329410
0.313730
0.323530
0.329410
0.335290
0.345100
0.300000
0.290200
0.937250
1.503900
1.503900
1.156900
0.429410
0.349020
0.380390
0.354900
0.345100
0.339220
0.335290
0.339220
0.349020
0.354900
0.364710
0.380390
0.384310
0.400000
0.403920
0.425490
0.449020
0.484310
0.519610
0.570590
0.615690
0.664710
0.725490
0.776470
0.800000
0.821570
0.805880
0.790200
0.745100
0.686270
0.605880
0.529410
0.464710
0.394120
0.354900
0.329410
0.309800
0.309800
0.300000
0.300000
0.309800
0.323530
0.335290
0.339220
0.345100
0.345100
0.354900
0.354900
0.358820
0.374510
0.374510
0.374510
0.370590
0.364710
0.364710
0.354900
0.349020
0.354900
0.349020
0.354900
0.374510
0.384310
0.390200
0.384310
0.374510
0.345100
0.335290
0.339220
0.354900
0.354900
0.354900
0.354900
0.335290
0.339220
0.345100
0.349020
0.354900
0.284310
0.519610
1.378400
1.503900
1.503900
0.725490
0.419610
0.409800
0.390200
0.364710
0.354900
0.349020
0.354900
0.364710
0.374510
0.374510
0.390200
0.400000
0.409800
0.425490
0.445100
0.464710
0.490200
0.519610
0.550980
0.584310
0.625490
0.680390
0.725490
0.760780
0.780390
0.796080
0.786270
0.766670
0.725490
0.676470
0.609800
0.550980
0.500000
0.449020
0.409800
0.374510
0.354900
0.349020
0.345100
0.339220
0.345100
0.339220
0.349020
0.354900
0.354900
0.364710
0.370590
0.380390
0.380390
0.374510
0.370590
0.364710
0.358820
0.358820
0.354900
0.354900
0.349020
0.339220
0.349020
0.358820
0.380390
0.384310
0.380390
0.374510
0.349020
0.335290
0.339220
0.349020
0.370590
0.364710
0.358820
0.345100
0.335290
0.335290
0.345100
0.354900
0.294120
0.290200
0.960780
1.503900
1.503900
1.011800
0.449020
0.403920
0.394120
0.374510
0.354900
0.339220
0.339220
0.354900
0.354900
0.374510
0.394120
0.403920
0.409800
0.425490
0.439220
0.449020
0.470590
0.494120
0.519610
0.550980
0.590200
0.645100
0.690200
0.731370
0.766670
0.780390
0.786270
0.770590
0.750980
0.705880
0.650980
0.596080
0.539220
0.494120
0.454900
0.425490
0.403920
0.394120
0.380390
0.380390
0.390200
0.400000
0.400000
0.400000
0.403920
0.400000
0.403920
0.409800
0.403920
0.403920
0.403920
0.400000
0.403920
0.400000
0.384310
0.380390
0.380390
0.374510
0.370590
0.380390
0.394120
0.403920
0.409800
0.400000
0.374510
0.354900
0.354900
0.364710
0.380390
0.374510
0.364710
0.354900
0.349020
0.349020
0.354900
0.349020
0.323530
0.300000
0.766670
1.503900
1.503900
1.347100
0.490200
0.354900
0.374510
0.354900
0.339220
0.323530
0.329410
0.335290
0.349020
0.354900
0.358820
0.380390
0.380390
0.394120
0.409800
0.425490
0.449020
0.470590
0.494120
0.535290
0.584310
0.635290
0.690200
0.735290
0.770590
0.790200
0.786270
0.790200
0.754900
0.715690
0.650980
0.580390
0.515690
0.449020
0.400000
0.358820
0.335290
0.319610
0.309800
0.313730
0.309800
0.313730
0.313730
0.329410
0.339220
0.354900
0.349020
0.349020
0.354900
0.345100
0.354900
0.354900
0.349020
0.349020
0.345100
0.335290
0.335290
0.323530
0.319610
0.335290
0.354900
0.358820
0.354900
0.354900
0.329410
0.313730
0.319610
0.329410
0.335290
0.329410
0.323530
0.339220
0.335290
0.329410
0.335290
0.345100
0.313730
0.419610
0.986270
1.503900
1.503900
1.141200
0.435290
0.364710
0.384310
0.354900
0.354900
0.339220
0.335290
0.345100
0.354900
0.358820
0.370590
0.374510
0.380390
0.390200
0.403920
0.415690
0.435290
0.470590
0.500000
0.545100
0.596080
0.650980
0.715690
0.770590
0.800000
0.831370
0.835290
0.825490
0.786270
0.735290
0.670590
0.590200
0.515690
0.454900
0.409800
0.374510
0.354900
0.335290
0.329410
0.335290
0.335290
0.345100
0.345100
0.349020
0.354900
0.354900
0.364710
0.370590
0.380390
0.374510
0.374510
0.374510
0.380390
0.374510
0.370590
0.358820
0.358820
0.354900
0.354900
0.358820
0.380390
0.394120
0.390200
0.380390
0.380390
0.349020
0.345100
0.354900
0.374510
0.380390
0.380390
0.370590
0.358820
0.358820
0.358820
0.358820
0.370590
0.290200
0.609800
1.503900
1.503900
1.503900
0.625490
0.419610
0.403920
0.380390
0.364710
0.349020
0.335290
0.354900
0.370590
0.374510
0.380390
0.394120
0.394120
0.400000
0.425490
0.439220
0.464710
0.484310
0.515690
0.550980
0.584310
0.635290
0.680390
0.731370
0.776470
0.796080
0.800000
0.790200
0.766670
0.721570
0.670590
0.609800
0.539220
0.490200
0.435290
0.403920
0.374510
0.358820
0.349020
0.345100
0.335290
0.339220
0.349020
0.354900
0.354900
0.354900
0.354900
0.358820
0.358820
0.364710
0.354900
0.370590
0.364710
0.364710
0.354900
0.358820
0.354900
0.349020
0.345100
0.354900
0.380390
0.400000
0.394120
0.380390
0.370590
0.354900
0.339220
0.349020
0.370590
0.374510
0.364710
0.354900
0.345100
0.335290
0.339220
0.335290
0.345100
0.284310
0.545100
1.388200
1.503900
1.503900
0.680390
0.403920
0.400000
0.380390
0.354900
0.349020
0.335290
0.339220
0.354900
0.370590
0.380390
0.394120
0.403920
0.403920
0.419610
0.439220
0.454900
0.480390
0.505880
0.535290
0.564710
0.619610
0.680390
0.735290
0.776470
0.800000
0.815690
0.821570
0.800000
0.760780
0.709800
0.654900
0.590200
0.539220
0.480390
0.429410
0.394120
0.374510
0.354900
0.354900
0.354900
0.358820
0.370590
0.370590
0.370590
0.374510
0.374510
0.390200
0.390200
0.384310
0.390200
0.380390
0.384310
0.384310
0.380390
0.374510
0.370590
0.364710
0.358820
0.370590
0.390200
0.394120
0.380390
0.380390
0.358820
0.329410
0.335290
0.339220
0.358820
0.354900
0.345100
0.335290
0.319610
0.335290
0.335290
0.335290
0.309800
0.278430
0.654900
1.503900
1.503900
1.498000
0.539220
0.339220
0.370590
0.349020
0.339220
0.329410
0.323530
0.329410
0.335290
0.339220
0.354900
0.358820
0.370590
0.380390
0.394120
0.415690
0.429410
0.449020
0.480390
0.509800
0.560780
0.609800
0.670590
0.715690
0.754900
0.790200
0.790200
0.780390
0.754900
0.700000
0.641180
0.570590
0.494120
0.435290
0.384310
0.349020
0.329410
0.294120
0.284310
0.284310
0.294120
0.290200
0.290200
0.303920
0.309800
0.319610
0.323530
0.335290
0.329410
0.335290
0.329410
0.329410
0.329410
0.323530
0.329410
0.319610
0.309800
0.303920
0.309800
0.329410
0.345100
0.354900
0.349020
0.339220
0.309800
0.300000
0.309800
0.329410
0.335290
0.339220
0.329410
0.313730
0.323530
0.319610
0.319610
0.335290
0.278430
0.464710
1.227500
1.503900
1.503900
0.876470
0.358820
0.335290
0.354900
0.323530
0.309800
0.294120
0.284310
0.284310
0.300000
0.319610
0.339220
0.354900
0.354900
0.380390
0.409800
0.435290
0.460780
0.490200
0.525490
0.574510
0.619610
0.676470
0.745100
0.800000
0.831370
0.845100
0.841180
0.825490
0.780390
0.721570
0.645100
0.564710
0.494120
0.439220
0.394120
0.358820
0.335290
0.313730
0.309800
0.319610
0.329410
0.323530
0.329410
0.335290
0.345100
0.349020
0.354900
0.354900
0.358820
0.354900
0.354900
0.354900
0.354900
0.354900
0.349020
0.345100
0.339220
0.345100
0.339220
0.349020
0.370590
0.380390
0.380390
0.370590
0.345100
0.323530
0.329410
0.335290
0.349020
0.349020
0.354900
0.339220
0.335290
0.335290
0.335290
0.339220
0.284310
0.274510
0.911760
1.503900
1.503900
1.131400
0.474510
0.415690
0.400000
0.370590
0.349020
0.329410
0.323530
0.339220
0.354900
0.358820
0.374510
0.380390
0.390200
0.403920
0.425490
0.435290
0.460780
0.484310
0.515690
0.554900
0.600000
0.650980
0.696080
0.735290
0.776470
0.790200
0.780390
0.776470
0.745100
0.690200
0.629410
0.570590
0.509800
0.460780
0.419610
0.390200
0.364710
0.358820
0.349020
0.349020
0.354900
0.354900
0.354900
0.358820
0.358820
0.364710
0.370590
0.374510
0.370590
0.374510
0.380390
0.370590
0.374510
0.370590
0.358820
0.354900
0.354900
0.349020
0.354900
0.370590
0.394120
0.394120
0.394120
0.380390
0.354900
0.339220
0.349020
0.354900
0.370590
0.358820
0.354900
0.345100
0.339220
0.339220
0.349020
0.354900
0.284310
0.454900
1.121600
1.503900
1.503900
0.860780
0.429410
0.403920
0.384310
0.358820
0.349020
0.329410
0.335290
0.349020
0.354900
0.370590
0.384310
0.394120
0.394120
0.415690
0.429410
0.449020
0.474510
0.505880
0.539220
0.584310
0.629410
0.686270
0.731370
0.770590
0.800000
0.811760
0.815690
0.796080
0.760780
0.709800
0.650980
0.580390
0.525490
0.474510
0.425490
0.390200
0.370590
0.354900
0.354900
0.354900
0.354900
0.358820
0.374510
0.374510
0.374510
0.380390
0.384310
0.390200
0.394120
0.380390
0.380390
0.380390
0.370590
0.370590
0.364710
0.354900
0.349020
0.354900
0.364710
0.374510
0.380390
0.374510
0.364710
0.349020
0.319610
0.329410
0.339220
0.358820
0.354900
0.339220
0.335290
0.329410
0.319610
0.329410
0.345100
0.303920
0.290200
0.890200
1.503900
1.503900
1.147100
0.409800
0.339220
0.354900
0.339220
0.335290
0.319610
0.319610
0.323530
0.335290
0.345100
0.354900
0.364710
0.370590
0.380390
0.403920
0.409800
0.425490
0.470590
0.490200
0.539220
0.596080
0.641180
0.696080
0.745100
0.776470
0.790200
0.800000
0.776470
0.735290
0.680390
0.609800
0.545100
0.464710
0.400000
0.354900
0.329410
0.300000
0.284310
0.284310
0.274510
0.278430
0.290200
0.278430
0.294120
0.313730
0.319610
0.319610
0.335290
0.335290
0.335290
0.339220
0.345100
0.335290
0.335290
0.335290
0.329410
0.323530
0.319610
0.339220
0.349020
0.354900
0.354900
0.354900
0.335290
0.323530
0.329410
0.335290
0.335290
0.329410
0.329410
0.309800
0.294120
0.300000
0.309800
0.309800
0.258820
0.390200
1.051000
1.503900
1.503900
0.976470
0.358820
0.309800
0.345100
0.349020
0.349020
0.339220
0.335290
0.335290
0.339220
0.364710
0.390200
0.403920
0.409800
0.425490
0.439220
0.460780
0.480390
0.500000
0.525490
0.564710
0.625490
0.680390
0.741180
0.786270
0.825490
0.841180
0.845100
0.825490
0.786270
0.721570
0.654900
0.580390
0.515690
0.454900
0.403920
0.364710
0.339220
0.329410
0.319610
0.313730
0.319610
0.329410
0.335290
0.345100
0.354900
0.354900
0.358820
0.364710
0.358820
0.364710
0.364710
0.358820
0.364710
0.354900
0.349020
0.345100
0.345100
0.339220
0.345100
0.364710
0.374510
0.380390
0.374510
0.380390
0.335290
0.335290
0.335290
0.349020
0.364710
0.358820
0.354900
0.339220
0.335290
0.339220
0.339220
0.345100
0.274510
0.525490
1.356900
1.503900
1.503900
0.735290
0.429410
0.409800
0.390200
0.364710
0.349020
0.345100
0.345100
0.354900
0.364710
0.380390
0.384310
0.394120
0.400000
0.425490
0.439220
0.454900
0.480390
0.509800
0.539220
0.574510
0.619610
0.676470
0.721570
0.754900
0.780390
0.790200
0.780390
0.754900
0.725490
0.664710
0.609800
0.550980
0.490200
0.439220
0.409800
0.380390
0.358820
0.354900
0.349020
0.349020
0.349020
0.349020
0.354900
0.354900
0.358820
0.364710
0.370590
0.380390
0.380390
0.380390
0.374510
0.380390
0.374510
0.370590
0.358820
0.354900
0.354900
0.354900
0.374510
0.394120
0.394120
0.380390
0.374510
0.345100
0.335290
0.345100
0.354900
0.358820
0.354900
0.354900
0.335290
0.335290
0.339220
0.345100
0.349020
0.274510
0.470590
1.221600
1.503900
1.503900
0.780390
0.425490
0.403920
0.394120
0.370590
0.354900
0.345100
0.349020
0.370590
0.380390
0.390200
0.419610
0.435290
0.449020
0.460780
0.474510
0.505880
0.519610
0.545100
0.570590
0.609800
0.650980
0.700000
0.741180
0.776470
0.796080
0.805880
0.800000
0.780390
0.745100
0.690200
0.625490
0.560780
0.505880
0.445100
0.403920
0.370590
0.358820
0.349020
0.345100
0.354900
0.354900
0.364710
0.370590
0.370590
0.374510
0.380390
0.380390
0.380390
0.380390
0.380390
0.374510
0.380390
0.370590
0.358820
0.354900
0.349020
0.349020
0.349020
0.358820
0.374510
0.380390
0.364710
0.354900
0.339220
0.313730
0.335290
0.345100
0.354900
0.339220
0.339220
0.323530
0.319610
0.313730
0.335290
0.339220
0.278430
0.460780
1.172500
1.503900
1.503900
0.831370
0.354900
0.335290
0.354900
0.329410
0.313730
0.309800
0.309800
0.323530
0.335290
0.335290
0.354900
0.364710
0.380390
0.384310
0.403920
0.415690
0.425490
0.454900
0.505880
0.550980
0.590200
0.650980
0.705880
0.750980
0.780390
0.796080
0.786270
0.776470
0.735290
0.676470
0.605880
0.529410
0.449020
0.400000
0.354900
0.329410
0.309800
0.290200
0.294120
0.294120
0.294120
0.303920
0.309800
0.313730
0.309800
0.323530
0.329410
0.335290
0.335290
0.335290
0.335290
0.345100
0.335290
0.339220
0.329410
0.335290
0.329410
0.329410
0.335290
0.349020
0.354900
0.354900
0.349020
0.339220
0.309800
0.309800
0.313730
0.319610
0.309800
0.303920
0.300000
0.290200
0.284310
0.284310
0.294120
0.303920
0.249020
0.696080
1.503900
1.503900
1.427500
0.509800
0.345100
0.364710
0.370590
0.358820
0.349020
0.335290
0.335290
0.349020
0.374510
0.390200
0.403920
0.403920
0.419610
0.439220
0.460780
0.474510
0.494120
0.515690
0.554900
0.600000
0.650980
0.715690
0.760780
0.796080
0.825490
0.845100
0.825490
0.796080
0.741180
0.664710
0.596080
0.525490
0.464710
0.419610
0.374510
0.354900
0.339220
0.329410
0.323530
0.329410
0.329410
0.335290
0.335290
0.339220
0.349020
0.354900
0.358820
0.358820
0.364710
0.370590
0.380390
0.380390
0.370590
0.370590
0.358820
0.358820
0.354900
0.354900
0.358820
0.384310
0.400000
0.403920
0.384310
0.374510
0.339220
0.335290
0.345100
0.358820
0.370590
0.364710
0.354900
0.335290
0.335290
0.335290
0.339220
0.349020
0.278430
0.596080
1.503900
1.503900
1.503900
0.641180
0.425490
0.415690
0.380390
0.358820
0.335290
0.335290
0.335290
0.345100
0.354900
0.374510
0.370590
0.384310
0.403920
0.409800
0.429410
0.445100
0.470590
0.490200
0.519610
0.570590
0.615690
0.654900
0.705880
0.750980
0.776470
0.780390
0.776470
0.750980
0.700000
0.650980
0.596080
0.529410
0.474510
0.425490
0.390200
0.358820
0.339220
0.335290
0.335290
0.335290
0.339220
0.335290
0.349020
0.354900
0.354900
0.354900
0.354900
0.354900
0.354900
0.354900
0.349020
0.339220
0.345100
0.354900
0.358820
0.370590
0.364710
0.358820
0.374510
0.390200
0.384310
0.370590
0.358820
0.303920
0.490200
1.156900
1.503900
1.503900
0.850980
0.484310
0.449020
0.419610
0.394120
0.380390
0.345100
0.335290
0.345100
0.354900
0.364710
0.374510
0.374510
0.380390
0.400000
0.419610
0.435290
0.449020
0.480390
0.505880
0.535290
0.584310
0.619610
0.654900
0.670590
0.686270
0.690200
0.696080
0.676470
0.635290
0.584310
0.525490
0.470590
0.419610
0.374510
0.349020
0.323530
0.313730
0.309800
0.309800
0.309800
0.309800
0.313730
0.309800
0.309800
0.309800
0.309800
0.309800
0.319610
0.313730
0.354900
0.380390
0.384310
0.380390
0.374510
0.354900
0.335290
0.300000
0.268630
0.264710
0.274510
0.264710
0.284310
0.219610
0.484310
1.298000
1.503900
1.503900
0.676470
0.300000
0.284310
0.278430
0.254900
0.229410
0.223530
0.233330
0.254900
0.249020
0.274510
0.284310
0.303920
0.319610
0.339220
0.349020
0.364710
0.403920
0.425490
0.460780
0.509800
0.564710
0.619610
0.670590
0.705880
0.715690
0.731370
0.721570
0.696080
0.645100
0.580390
0.509800
0.449020
0.394120
0.349020
0.319610
0.300000
0.284310
0.284310
0.290200
0.294120
0.290200
0.303920
0.300000
0.319610
0.323530
0.335290
0.329410
0.335290
0.329410
0.335290
0.329410
0.335290
0.323530
0.319610
0.313730
0.313730
0.309800
0.309800
0.309800
0.303920
0.309800
0.284310
0.278430
0.274510
0.274510
0.274510
0.278430
0.284310
0.284310
0.294120
0.294120
0.300000
0.309800
0.319610
0.319610
0.335290
0.339220
0.349020
0.374510
0.400000
0.403920
0.409800
0.409800
0.390200
0.380390
0.390200
0.403920
0.415690
0.400000
0.409800
0.403920
0.400000
0.403920
0.409800
0.384310
0.339220
0.731370
1.503900
1.503900
1.503900
0.619610
0.445100
0.449020
0.425490
0.403920
0.394120
0.394120
0.400000
0.400000
0.403920
0.415690
0.425490
0.435290
0.449020
0.464710
0.474510
0.490200
0.509800
0.529410
0.560780
0.605880
0.650980
0.705880
0.760780
0.796080
0.821570
0.841180
0.835290
0.821570
0.796080
0.760780
0.705880
0.650980
0.580390
0.529410
0.484310
0.449020
0.425490
0.403920
0.390200
0.390200
0.384310
0.390200
0.394120
0.400000
0.403920
0.409800
0.415690
0.419610
0.409800
0.425490
0.425490
0.415690
0.409800
0.403920
0.394120
0.384310
0.380390
0.374510
0.374510
0.384310
0.403920
0.403920
0.403920
0.390200
0.364710
0.349020
0.354900
0.354900
0.370590
0.364710
0.358820
0.349020
0.339220
0.335290
0.349020
0.354900
0.278430
0.435290
1.121600
1.503900
1.503900
0.901960
0.439220
0.403920
0.384310
0.370590
0.349020
0.329410
0.335290
0.345100
0.354900
0.374510
0.380390
0.384310
0.394120
0.403920
0.415690
0.439220
0.464710
0.494120
0.515690
0.554900
0.596080
0.650980
0.690200
0.731370
0.754900
0.760780
0.760780
0.741180
0.705880
0.660780
0.605880
0.550980
0.490200
0.449020
0.419610
0.384310
0.364710
0.349020
0.339220
0.339220
0.349020
0.345100
0.354900
0.354900
0.354900
0.354900
0.358820
0.358820
0.364710
0.358820
0.364710
0.364710
0.354900
0.358820
0.358820
0.354900
0.354900
0.349020
0.364710
0.384310
0.394120
0.400000
0.384310
0.370590
0.345100
0.339220
0.354900
