0.410100
0.415020
0.419950
0.429800
0.439660
0.454430
0.470440
0.485220
0.509850
0.539410
0.570200
0.599750
0.614530
0.624380
0.630540
0.614530
0.589900
0.560340
0.529560
0.495070
0.475370
0.454430
0.439660
0.429800
0.424880
0.424880
0.424880
0.424880
0.429800
0.434730
0.434730
0.439660
0.449510
0.449510
0.449510
0.449510
0.449510
0.449510
0.449510
0.454430
0.465520
0.480300
0.490150
0.514780
0.539410
0.550490
0.545570
0.534480
0.514780
0.490150
0.454430
0.424880
0.410100
0.400250
0.400250
0.400250
0.400250
0.400250
0.405170
0.429800
0.504930
0.679800
0.924880
1.024600
0.820200
0.524630
0.380540
0.354680
0.364530
0.369460
0.375620
0.380540
0.385470
0.395320
0.405170
0.415020
0.419950
0.429800
0.434730
0.449510
0.454430
0.470440
0.490150
0.519700
0.555420
0.584980
0.609610
0.624380
0.630540
0.619460
0.599750
0.575120
0.545570
0.519700
0.490150
0.465520
0.449510
0.439660
0.434730
0.429800
0.429800
0.429800
0.429800
0.434730
0.439660
0.449510
0.454430
0.454430
0.460590
0.454430
0.454430
0.454430
0.454430
0.454430
0.465520
0.480300
0.495070
0.504930
0.534480
0.555420
0.550490
0.539410
0.529560
0.509850
0.475370
0.439660
0.419950
0.410100
0.405170
0.400250
0.400250
0.400250
0.405170
0.415020
0.460590
0.584980
0.810340
1.004900
1.009900
0.640390
0.429800
0.364530
0.364530
0.369460
0.380540
0.385470
0.390390
0.395320
0.405170
0.415020
0.419950
0.429800
0.439660
0.444580
0.454430
0.470440
0.490150
0.514780
0.545570
0.580050
0.604680
0.624380
0.635470
0.635470
0.619460
0.599750
0.570200
0.539410
0.509850
0.485220
0.465520
0.449510
0.444580
0.439660
0.439660
0.439660
0.439660
0.439660
0.449510
0.449510
0.454430
0.454430
0.460590
0.465520
0.465520
0.465520
0.465520
0.465520
0.475370
0.490150
0.500000
0.504930
0.524630
0.555420
0.560340
0.550490
0.539410
0.524630
0.500000
0.465520
0.439660
0.429800
0.419950
0.415020
0.415020
0.410100
0.410100
0.424880
0.465520
0.575120
0.789410
1.024600
1.070200
0.750000
0.480300
0.375620
0.364530
0.369460
0.375620
0.385470
0.395320
0.400250
0.410100
0.415020
0.424880
0.434730
0.439660
0.449510
0.465520
0.480300
0.500000
0.519700
0.545570
0.580050
0.609610
0.630540
0.640390
0.645320
0.630540
0.609610
0.580050
0.545570
0.514780
0.485220
0.465520
0.449510
0.439660
0.434730
0.429800
0.429800
0.429800
0.434730
0.434730
0.439660
0.439660
0.449510
0.454430
0.454430
0.454430
0.454430
0.454430
0.454430
0.454430
0.465520
0.480300
0.485220
0.495070
0.519700
0.539410
0.545570
0.529560
0.524630
0.504930
0.480300
0.449510
0.429800
0.419950
0.410100
0.405170
0.405170
0.405170
0.410100
0.429800
0.485220
0.640390
0.895320
1.080000
0.949510
0.630540
0.415020
0.354680
0.359610
0.364530
0.369460
0.375620
0.385470
0.390390
0.395320
0.400250
0.410100
0.419950
0.429800
0.434730
0.449510
0.465520
0.485220
0.509850
0.539410
0.570200
0.599750
0.619460
0.624380
0.624380
0.604680
0.580050
0.555420
0.519700
0.485220
0.460590
0.444580
0.429800
0.419950
0.419950
0.419950
0.419950
0.424880
0.429800
0.434730
0.439660
0.444580
0.449510
0.449510
0.449510
0.449510
0.449510
0.444580
0.444580
0.449510
0.465520
0.480300
0.495070
0.509850
0.539410
0.550490
0.550490
0.539410
0.524630
0.500000
0.470440
0.434730
0.415020
0.410100
0.405170
0.400250
0.400250
0.400250
0.400250
0.419950
0.485220
0.630540
0.864530
1.024600
0.880540
0.584980
0.400250
0.354680
0.359610
0.369460
0.380540
0.385470
0.390390
0.400250
0.410100
0.415020
0.419950
0.429800
0.434730
0.449510
0.460590
0.475370
0.495070
0.519700
0.545570
0.580050
0.604680
0.624380
0.630540
0.624380
0.609610
0.584980
0.555420
0.524630
0.495070
0.475370
0.449510
0.439660
0.434730
0.429800
0.429800
0.429800
0.434730
0.434730
0.434730
0.434730
0.439660
0.439660
0.439660
0.444580
0.449510
0.449510
0.449510
0.449510
0.454430
0.470440
0.485220
0.495070
0.514780
0.534480
0.545570
0.539410
0.529560
0.509850
0.480300
0.444580
0.415020
0.400250
0.395320
0.395320
0.395320
0.390390
0.395320
0.405170
0.434730
0.529560
0.730300
0.949510
0.990150
0.679800
0.439660
0.359610
0.354680
0.369460
0.375620
0.375620
0.380540
0.385470
0.395320
0.405170
0.410100
0.419950
0.429800
0.434730
0.449510
0.460590
0.480300
0.504930
0.534480
0.565270
0.594830
0.619460
0.635470
0.655170
0.679800
0.694580
0.694580
0.684730
0.660100
0.614530
0.555420
0.485220
0.444580
0.415020
0.400250
0.400250
0.400250
0.400250
0.400250
0.400250
0.400250
0.400250
0.400250
0.405170
0.410100
0.410100
0.454430
0.614530
0.885470
1.034500
0.880540
0.589900
0.439660
0.400250
0.390390
0.390390
0.390390
0.395320
0.400250
0.405170
0.415020
0.419950
0.424880
0.434730
0.444580
0.454430
0.465520
0.480300
0.504930
0.529560
0.560340
0.580050
0.589900
0.594830
0.589900
0.575120
0.555420
0.534480
0.509850
0.485220
0.465520
0.460590
0.454430
0.454430
0.454430
0.454430
0.454430
0.454430
0.454430
0.454430
0.454430
0.454430
0.454430
0.454430
0.454430
0.449510
0.449510
0.444580
0.439660
0.439660
0.439660
0.439660
0.444580
0.444580
0.444580
0.444580
0.449510
0.449510
0.460590
0.475370
0.495070
0.509850
0.534480
0.560340
0.565270
0.555420
0.545570
0.519700
0.495070
0.460590
0.434730
0.424880
0.419950
0.419950
0.419950
0.419950
0.424880
0.449510
0.529560
0.715520
0.970440
1.060300
0.839900
0.539410
0.395320
0.364530
0.369460
0.375620
0.385470
0.390390
0.395320
0.400250
0.410100
0.415020
0.419950
0.434730
0.444580
0.454430
0.465520
0.480300
0.500000
0.524630
0.560340
0.589900
0.609610
0.630540
0.635470
0.630540
0.614530
0.589900
0.560340
0.524630
0.500000
0.480300
0.460590
0.449510
0.439660
0.439660
0.439660
0.444580
0.449510
0.454430
0.454430
0.460590
0.460590
0.460590
0.465520
0.465520
0.465520
0.460590
0.460590
0.460590
0.460590
0.465520
0.480300
0.495070
0.500000
0.524630
0.550490
0.560340
0.555420
0.545570
0.524630
0.500000
0.460590
0.434730
0.419950
0.415020
0.415020
0.410100
0.405170
0.405170
0.410100
0.444580
0.534480
0.725370
0.965520
1.029600
0.764780
0.490150
0.380540
0.364530
0.375620
0.385470
0.385470
0.390390
0.395320
0.405170
0.415020
0.419950
0.429800
0.439660
0.449510
0.460590
0.475370
0.490150
0.509850
0.539410
0.570200
0.599750
0.619460
0.630540
0.635470
0.619460
0.599750
0.570200
0.545570
0.514780
0.485220
0.465520
0.449510
0.439660
0.434730
0.429800
0.434730
0.434730
0.434730
0.439660
0.449510
0.454430
0.454430
0.454430
0.454430
0.460590
0.454430
0.454430
0.449510
0.454430
0.465520
0.480300
0.495070
0.504930
0.534480
0.555420
0.560340
0.545570
0.529560
0.500000
0.470440
0.434730
0.415020
0.405170
0.400250
0.395320
0.395320
0.395320
0.400250
0.410100
0.454430
0.580050
0.800490
0.980300
0.885470
0.599750
0.410100
0.354680
0.359610
0.369460
0.380540
0.385470
0.390390
0.395320
0.405170
0.415020
0.419950
0.434730
0.439660
0.454430
0.465520
0.475370
0.495070
0.519700
0.550490
0.584980
0.609610
0.624380
0.635470
0.635470
0.619460
0.599750
0.570200
0.539410
0.509850
0.480300
0.465520
0.454430
0.444580
0.439660
0.434730
0.439660
0.439660
0.444580
0.449510
0.449510
0.454430
0.460590
0.465520
0.465520
0.465520
0.465520
0.465520
0.470440
0.480300
0.495070
0.504930
0.514780
0.539410
0.560340
0.560340
0.550490
0.539410
0.519700
0.490150
0.460590
0.434730
0.429800
0.424880
0.419950
0.419950
0.419950
0.419950
0.444580
0.509850
0.674880
0.934730
1.109600
0.965520
0.635470
0.424880
0.369460
0.375620
0.380540
0.385470
0.390390
0.395320
0.400250
0.410100
0.415020
0.424880
0.434730
0.439660
0.454430
0.465520
0.475370
0.495070
0.519700
0.555420
0.584980
0.609610
0.630540
0.635470
0.635470
0.614530
0.589900
0.560340
0.524630
0.495070
0.470440
0.449510
0.434730
0.429800
0.424880
0.424880
0.424880
0.429800
0.434730
0.434730
0.439660
0.439660
0.449510
0.449510
0.454430
0.454430
0.454430
0.449510
0.449510
0.449510
0.465520
0.480300
0.490150
0.509850
0.539410
0.550490
0.545570
0.539410
0.524630
0.495070
0.460590
0.424880
0.410100
0.400250
0.395320
0.395320
0.395320
0.400250
0.410100
0.434730
0.519700
0.704430
0.949510
1.039400
0.815270
0.519700
0.380540
0.354680
0.364530
0.369460
0.375620
0.385470
0.390390
0.395320
0.400250
0.410100
0.415020
0.424880
0.434730
0.439660
0.454430
0.470440
0.495070
0.519700
0.555420
0.584980
0.609610
0.630540
0.630540
0.619460
0.599750
0.575120
0.545570
0.519700
0.490150
0.460590
0.444580
0.434730
0.429800
0.424880
0.419950
0.419950
0.424880
0.429800
0.434730
0.439660
0.444580
0.449510
0.449510
0.454430
0.454430
0.454430
0.454430
0.454430
0.460590
0.480300
0.490150
0.500000
0.534480
0.550490
0.555420
0.539410
0.524630
0.504930
0.475370
0.434730
0.419950
0.410100
0.410100
0.405170
0.405170
0.400250
0.400250
0.415020
0.470440
0.594830
0.820200
1.014800
0.934730
0.640390
0.424880
0.359610
0.354680
0.364530
0.369460
0.375620
0.385470
0.390390
0.400250
0.410100
0.415020
0.424880
0.434730
0.444580
0.454430
0.470440
0.490150
0.514780
0.539410
0.570200
0.599750
0.619460
0.624380
0.630540
0.609610
0.589900
0.560340
0.529560
0.500000
0.475370
0.449510
0.439660
0.434730
0.429800
0.429800
0.429800
0.429800
0.434730
0.439660
0.439660
0.444580
0.449510
0.454430
0.454430
0.454430
0.454430
0.449510
0.449510
0.460590
0.475370
0.490150
0.500000
0.524630
0.550490
0.555420
0.545570
0.529560
0.514780
0.480300
0.449510
0.424880
0.415020
0.410100
0.405170
0.400250
0.395320
0.395320
0.410100
0.449510
0.555420
0.759850
0.985220
1.024600
0.704430
0.454430
0.364530
0.354680
0.369460
0.375620
0.385470
0.390390
0.395320
0.400250
0.405170
0.415020
0.424880
0.434730
0.444580
0.454430
0.470440
0.485220
0.509850
0.539410
0.570200
0.599750
0.619460
0.630540
0.635470
0.619460
0.599750
0.570200
0.539410
0.509850
0.480300
0.465520
0.449510
0.439660
0.434730
0.434730
0.434730
0.439660
0.439660
0.449510
0.449510
0.449510
0.454430
0.460590
0.460590
0.460590
0.460590
0.454430
0.454430
0.465520
0.480300
0.495070
0.504930
0.524630
0.550490
0.560340
0.550490
0.539410
0.519700
0.490150
0.454430
0.424880
0.410100
0.405170
0.405170
0.405170
0.400250
0.400250
0.405170
0.439660
0.529560
0.709360
0.944580
1.004900
0.745070
0.480300
0.369460
0.354680
0.364530
0.369460
0.369460
0.375620
0.385470
0.390390
0.395320
0.410100
0.415020
0.424880
0.434730
0.444580
0.454430
0.470440
0.490150
0.514780
0.545570
0.580050
0.599750
0.609610
0.614530
0.604680
0.584980
0.560340
0.529560
0.500000
0.475370
0.454430
0.434730
0.424880
0.419950
0.415020
0.415020
0.415020
0.419950
0.419950
0.429800
0.434730
0.434730
0.439660
0.444580
0.444580
0.444580
0.444580
0.454430
0.465520
0.480300
0.495070
0.504930
0.529560
0.545570
0.550490
0.539410
0.524630
0.504930
0.475370
0.444580
0.429800
0.419950
0.415020
0.410100
0.410100
0.410100
0.410100
0.429800
0.495070
0.660100
0.919950
1.070200
0.905170
0.584980
0.405170
0.364530
0.369460
0.380540
0.385470
0.390390
0.400250
0.410100
0.415020
0.419950
0.429800
0.439660
0.449510
0.460590
0.475370
0.485220
0.504930
0.529560
0.565270
0.594830
0.619460
0.635470
0.640390
0.635470
0.619460
0.589900
0.560340
0.529560
0.500000
0.475370
0.454430
0.439660
0.434730
0.429800
0.429800
0.429800
0.434730
0.434730
0.439660
0.439660
0.444580
0.449510
0.454430
0.454430
0.454430
0.449510
0.449510
0.454430
0.460590
0.475370
0.485220
0.495070
0.514780
0.539410
0.545570
0.539410
0.529560
0.514780
0.490150
0.454430
0.424880
0.415020
0.410100
0.405170
0.400250
0.400250
0.405170
0.415020
0.454430
0.570200
0.784480
1.024600
1.065300
0.735220
0.470440
0.369460
0.354680
0.364530
0.369460
0.369460
0.375620
0.385470
0.390390
0.400250
0.410100
0.419950
0.429800
0.434730
0.449510
0.460590
0.480300
0.504930
0.534480
0.565270
0.594830
0.614530
0.624380
0.630540
0.614530
0.594830
0.565270
0.534480
0.500000
0.475370
0.454430
0.439660
0.434730
0.429800
0.429800
0.429800
0.429800
0.434730
0.434730
0.439660
0.444580
0.449510
0.449510
0.454430
0.454430
0.454430
0.454430
0.454430
0.460590
0.475370
0.490150
0.500000
0.514780
0.539410
0.555420
0.550490
0.545570
0.524630
0.500000
0.465520
0.434730
0.419950
0.410100
0.405170
0.400250
0.400250
0.400250
0.410100
0.434730
0.509850
0.674880
0.924880
1.034500
0.834980
0.534480
0.385470
0.359610
0.369460
0.375620
0.385470
0.390390
0.395320
0.400250
0.410100
0.415020
0.419950
0.429800
0.434730
0.449510
0.460590
0.475370
0.495070
0.524630
0.555420
0.584980
0.609610
0.630540
0.630540
0.624380
0.604680
0.580050
0.555420
0.519700
0.495070
0.470440
0.449510
0.439660
0.434730
0.434730
0.429800
0.429800
0.434730
0.434730
0.439660
0.444580
0.449510
0.449510
0.454430
0.460590
0.454430
0.454430
0.454430
0.454430
0.470440
0.490150
0.500000
0.514780
0.539410
0.560340
0.555420
0.545570
0.534480
0.509850
0.475370
0.444580
0.419950
0.415020
0.410100
0.410100
0.410100
0.410100
0.410100
0.424880
0.480300
0.614530
0.854680
1.029600
0.910100
0.614530
0.415020
0.364530
0.369460
0.375620
0.380540
0.385470
0.395320
0.400250
0.410100
0.415020
0.419950
0.429800
0.439660
0.449510
0.460590
0.475370
0.495070
0.514780
0.545570
0.580050
0.604680
0.619460
0.630540
0.624380
0.609610
0.584980
0.555420
0.524630
0.495070
0.470440
0.449510
0.434730
0.429800
0.424880
0.424880
0.429800
0.429800
0.434730
0.439660
0.444580
0.449510
0.449510
0.454430
0.460590
0.460590
0.460590
0.454430
0.454430
0.465520
0.480300
0.495070
0.504930
0.534480
0.555420
0.560340
0.545570
0.534480
0.514780
0.480300
0.444580
0.419950
0.415020
0.410100
0.400250
0.405170
0.405170
0.400250
0.410100
0.454430
0.565270
0.774630
0.980300
1.000000
0.655170
0.434730
0.359610
0.354680
0.369460
0.375620
0.380540
0.390390
0.395320
0.405170
0.415020
0.415020
0.424880
0.434730
0.444580
0.454430
0.470440
0.490150
0.509850
0.534480
0.570200
0.599750
0.619460
0.630540
0.630540
0.614530
0.589900
0.565270
0.539410
0.509850
0.485220
0.465520
0.449510
0.439660
0.434730
0.434730
0.434730
0.434730
0.434730
0.439660
0.439660
0.444580
0.454430
0.460590
0.460590
0.460590
0.460590
0.454430
0.454430
0.470440
0.485220
0.495070
0.509850
0.534480
0.555420
0.560340
0.545570
0.529560
0.509850
0.480300
0.449510
0.429800
0.419950
0.415020
0.410100
0.410100
0.410100
0.415020
0.434730
0.500000
0.660100
0.919950
1.089900
0.944580
0.619460
0.410100
0.364530
0.364530
0.369460
0.375620
0.380540
0.390390
0.395320
0.405170
0.415020
0.419950
0.429800
0.439660
0.449510
0.460590
0.475370
0.495070
0.524630
0.555420
0.589900
0.614530
0.630540
0.640390
0.635470
0.614530
0.589900
0.560340
0.524630
0.495070
0.465520
0.449510
0.434730
0.429800
0.424880
0.424880
0.429800
0.429800
0.429800
0.434730
0.439660
0.444580
0.449510
0.449510
0.449510
0.449510
0.449510
0.449510
0.449510
0.454430
0.470440
0.485220
0.495070
0.514780
0.539410
0.550490
0.545570
0.534480
0.514780
0.490150
0.460590
0.429800
0.415020
0.405170
0.400250
0.400250
0.400250
0.400250
0.410100
0.439660
0.529560
0.720440
0.970440
1.044300
0.795570
0.504930
0.375620
0.354680
0.364530
0.369460
0.375620
0.380540
0.385470
0.395320
0.400250
0.410100
0.415020
0.424880
0.434730
0.444580
0.460590
0.475370
0.495070
0.524630
0.560340
0.584980
0.609610
0.624380
0.630540
0.619460
0.599750
0.570200
0.539410
0.504930
0.475370
0.454430
0.439660
0.429800
0.419950
0.419950
0.424880
0.424880
0.424880
0.429800
0.434730
0.439660
0.449510
0.449510
0.454430
0.454430
0.454430
0.454430
0.454430
0.454430
0.465520
0.480300
0.495070
0.509850
0.534480
0.550490
0.555420
0.539410
0.529560
0.509850
0.475370
0.444580
0.419950
0.410100
0.410100
0.405170
0.405170
0.400250
0.400250
0.415020
0.465520
0.589900
0.815270
1.014800
0.934730
0.640390
0.429800
0.359610
0.359610
0.369460
0.375620
0.385470
0.390390
0.395320
0.400250
0.410100
0.415020
0.424880
0.434730
0.449510
0.460590
0.470440
0.490150
0.514780
0.545570
0.575120
0.604680
0.624380
0.635470
0.635470
0.614530
0.589900
0.560340
0.529560
0.500000
0.475370
0.454430
0.439660
0.429800
0.424880
0.424880
0.429800
0.429800
0.434730
0.439660
0.444580
0.449510
0.449510
0.449510
0.454430
0.454430
0.454430
0.454430
0.454430
0.460590
0.480300
0.495070
0.504930
0.524630
0.545570
0.555420
0.545570
0.539410
0.519700
0.495070
0.460590
0.429800
0.415020
0.410100
0.410100
0.410100
0.405170
0.405170
0.410100
0.439660
0.519700
0.694580
0.934730
1.014800
0.795570
0.514780
0.380540
0.359610
0.369460
0.375620
0.380540
0.385470
0.390390
0.395320
0.400250
0.410100
0.419950
0.429800
0.434730
0.449510
0.460590
0.475370
0.495070
0.519700
0.555420
0.580050
0.604680
0.624380
0.624380
0.614530
0.594830
0.565270
0.539410
0.509850
0.480300
0.454430
0.439660
0.429800
0.424880
0.419950
0.424880
0.429800
0.429800
0.429800
0.434730
0.439660
0.439660
0.444580
0.449510
0.449510
0.444580
0.444580
0.444580
0.454430
0.465520
0.480300
0.495070
0.509850
0.534480
0.545570
0.539410
0.529560
0.514780
0.490150
0.454430
0.429800
0.415020
0.410100
0.400250
0.400250
0.400250
0.400250
0.405170
0.429800
0.509850
0.694580
0.939660
1.014800
0.774630
0.500000
0.380540
0.364530
0.375620
0.380540
0.390390
0.395320
0.400250
0.405170
0.415020
0.419950
0.429800
0.434730
0.449510
0.454430
0.470440
0.480300
0.504930
0.534480
0.565270
0.599750
0.624380
0.640390
0.645320
0.635470
0.614530
0.584980
0.555420
0.524630
0.495070
0.470440
0.449510
0.439660
0.434730
0.434730
0.434730
0.434730
0.439660
0.444580
0.449510
0.449510
0.454430
0.454430
0.454430
0.460590
0.460590
0.460590
0.460590
0.454430
0.460590
0.480300
0.490150
0.495070
0.519700
0.545570
0.550490
0.539410
0.529560
0.514780
0.485220
0.454430
0.429800
0.419950
0.410100
0.405170
0.400250
0.400250
0.405170
0.424880
0.475370
0.614530
0.854680
1.065300
1.070200
0.684730
0.439660
0.364530
0.354680
0.364530
0.369460
0.375620
0.385470
0.390390
0.395320
0.400250
0.410100
0.419950
0.429800
0.439660
0.449510
0.470440
0.485220
0.509850
0.539410
0.570200
0.599750
0.619460
0.630540
0.635470
0.614530
0.589900
0.560340
0.529560
0.500000
0.470440
0.449510
0.439660
0.429800
0.419950
0.419950
0.419950
0.429800
0.429800
0.434730
0.439660
0.439660
0.444580
0.449510
0.449510
0.449510
0.449510
0.449510
0.449510
0.449510
0.460590
0.480300
0.495070
0.504930
0.534480
0.550490
0.550490
0.539410
0.524630
0.504930
0.475370
0.439660
0.419950
0.410100
0.405170
0.405170
0.400250
0.400250
0.405170
0.415020
0.470440
0.609610
0.849750
1.034500
0.924880
0.619460
0.415020
0.359610
0.364530
0.369460
0.375620
0.380540
0.390390
0.395320
0.400250
0.415020
0.419950
0.429800
0.434730
0.444580
0.454430
0.475370
0.495070
0.519700
0.550490
0.580050
0.604680
0.624380
0.635470
0.635470
0.619460
0.594830
0.565270
0.534480
0.500000
0.475370
0.454430
0.439660
0.434730
0.434730
0.434730
0.434730
0.439660
0.444580
0.444580
0.449510
0.449510
0.454430
0.454430
0.454430
0.454430
0.454430
0.454430
0.454430
0.460590
0.470440
0.485220
0.500000
0.514780
0.539410
0.550490
0.550490
0.539410
0.524630
0.495070
0.460590
0.429800
0.415020
0.410100
0.405170
0.405170
0.405170
0.405170
0.410100
0.434730
0.500000
0.655170
0.895320
1.019700
0.849750
0.555420
0.395320
0.364530
0.369460
0.375620
0.385470
0.385470
0.390390
0.400250
0.410100
0.415020
0.419950
0.429800
0.434730
0.449510
0.460590
0.475370
0.495070
0.519700
0.555420
0.580050
0.604680
0.624380
0.630540
0.624380
0.604680
0.580050
0.545570
0.514780
0.490150
0.465520
0.449510
0.434730
0.429800
0.424880
0.424880
0.429800
0.429800
0.434730
0.439660
0.444580
0.449510
0.449510
0.454430
0.454430
0.454430
0.454430
0.454430
0.449510
0.454430
0.475370
0.490150
0.500000
0.519700
0.545570
0.555420
0.545570
0.534480
0.514780
0.485220
0.449510
0.419950
0.410100
0.400250
0.400250
0.400250
0.400250
0.400250
0.410100
0.434730
0.514780
0.689660
0.929800
1.000000
0.764780
0.490150
0.375620
0.354680
0.369460
0.369460
0.375620
0.380540
0.390390
0.395320
0.400250
0.410100
0.415020
0.424880
0.434730
0.449510
0.460590
0.475370
0.490150
0.514780
0.545570
0.580050
0.599750
0.614530
0.624380
0.614530
0.594830
0.565270
0.539410
0.509850
0.485220
0.465520
0.444580
0.434730
0.429800
0.424880
0.424880
0.424880
0.434730
0.434730
0.439660
0.449510
0.454430
0.460590
0.460590
0.460590
0.460590
0.460590
0.460590
0.465520
0.475370
0.495070
0.500000
0.519700
0.545570
0.555420
0.550490
0.539410
0.524630
0.504930
0.470440
0.444580
0.429800
0.419950
0.419950
0.415020
0.415020
0.415020
0.419950
0.444580
0.534480
0.730300
0.990150
1.075100
0.839900
0.534480
0.390390
0.364530
0.375620
0.385470
0.390390
0.395320
0.400250
0.410100
0.415020
0.429800
0.434730
0.439660
0.449510
0.460590
0.470440
0.485220
0.509850
0.539410
0.570200
0.604680
0.624380
0.640390
0.640390
0.630540
0.614530
0.584980
0.555420
0.519700
0.490150
0.470440
0.449510
0.434730
0.434730
0.429800
0.429800
0.429800
0.434730
0.434730
0.434730
0.439660
0.444580
0.449510
0.449510
0.449510
0.454430
0.454430
0.449510
0.449510
0.454430
0.465520
0.480300
0.495070
0.509850
0.534480
0.545570
0.545570
0.539410
0.524630
0.500000
0.470440
0.439660
0.419950
0.410100
0.400250
0.400250
0.400250
0.400250
0.405170
0.434730
0.509850
0.679800
0.934730
1.060300
0.869460
0.560340
0.390390
0.354680
0.359610
0.364530
0.369460
0.375620
0.385470
0.390390
0.400250
0.410100
0.415020
0.429800
0.434730
0.449510
0.454430
0.470440
0.490150
0.519700
0.555420
0.584980
0.604680
0.624380
0.635470
0.624380
0.609610
0.580050
0.555420
0.524630
0.495070
0.470440
0.449510
0.434730
0.429800
0.429800
0.429800
0.429800
0.434730
0.434730
0.434730
0.439660
0.444580
0.449510
0.454430
0.460590
0.454430
0.454430
0.454430
0.454430
0.454430
0.470440
0.485220
0.495070
0.514780
0.539410
0.555420
0.550490
0.545570
0.524630
0.500000
0.470440
0.439660
0.419950
0.410100
0.405170
0.405170
0.405170
0.405170
0.405170
0.429800
0.500000
0.660100
0.900250
1.039400
0.874380
0.575120
0.400250
0.364530
0.369460
0.380540
0.385470
0.390390
0.395320
0.400250
0.410100
0.419950
0.429800
0.429800
0.439660
0.449510
0.460590
0.475370
0.495070
0.519700
0.555420
0.584980
0.614530
0.630540
0.640390
0.635470
0.614530
0.589900
0.560340
0.529560
0.500000
0.480300
0.460590
0.449510
0.439660
0.439660
0.439660
0.439660
0.439660
0.449510
0.454430
0.454430
0.454430
0.460590
0.460590
0.460590
0.460590
0.454430
0.454430
0.454430
0.460590
0.470440
0.485220
0.490150
0.509850
0.534480
0.550490
0.555420
0.539410
0.524630
0.500000
0.465520
0.429800
0.415020
0.405170
0.395320
0.395320
0.395320
0.395320
0.400250
0.419950
0.485220
0.635470
0.874380
1.000000
0.825120
0.534480
0.390390
0.359610
0.364530
0.369460
0.375620
0.385470
0.390390
0.395320
0.405170
0.410100
0.415020
0.424880
0.434730
0.444580
0.454430
0.470440
0.490150
0.514780
0.545570
0.580050
0.604680
0.619460
0.630540
0.624380
0.604680
0.580050
0.550490
0.519700
0.490150
0.465520
0.449510
0.439660
0.434730
0.429800
0.429800
0.429800
0.434730
0.434730
0.439660
0.444580
0.449510
0.449510
0.454430
0.454430
0.454430
0.460590
0.460590
0.460590
0.470440
0.485220
0.495070
0.504930
0.529560
0.550490
0.555420
0.539410
0.529560
0.514780
0.490150
0.454430
0.434730
0.424880
0.419950
0.419950
0.415020
0.415020
0.419950
0.434730
0.500000
0.650250
0.905170
1.104700
0.995070
0.669950
0.439660
0.369460
0.369460
0.380540
0.385470
0.390390
0.390390
0.400250
0.405170
0.415020
0.419950
0.429800
0.439660
0.449510
0.460590
0.475370
0.495070
0.519700
0.550490
0.584980
0.614530
0.635470
0.645320
0.640390
0.624380
0.599750
0.570200
0.534480
0.500000
0.470440
0.449510
0.439660
0.429800
0.424880
0.424880
0.429800
0.429800
0.434730
0.439660
0.439660
0.439660
0.449510
0.449510
0.454430
0.449510
0.449510
0.449510
0.449510
0.449510
0.454430
0.475370
0.485220
0.495070
0.514780
0.539410
0.550490
0.545570
0.539410
0.519700
0.495070
0.454430
0.429800
0.415020
0.410100
0.410100
0.410100
0.410100
0.410100
0.415020
0.460590
0.570200
0.784480
1.014800
1.050500
0.715520
0.460590
0.364530
0.354680
0.364530
0.369460
0.375620
0.385470
0.390390
0.395320
0.405170
0.415020
0.419950
0.429800
0.439660
0.449510
0.465520
0.480300
0.504930
0.534480
0.565270
0.599750
0.619460
0.630540
0.635470
0.619460
0.599750
0.570200
0.539410
0.504930
0.480300
0.460590
0.444580
0.434730
0.434730
0.429800
0.429800
0.429800
0.434730
0.439660
0.444580
0.449510
0.449510
0.449510
0.454430
0.454430
0.454430
0.454430
0.454430
0.454430
0.460590
0.475370
0.490150
0.500000
0.524630
0.555420
0.560340
0.545570
0.539410
0.519700
0.495070
0.454430
0.429800
0.415020
0.410100
0.405170
0.400250
0.400250
0.400250
0.410100
0.444580
0.539410
0.745070
0.985220
1.039400
0.745070
0.480300
0.375620
0.364530
0.369460
0.375620
0.375620
0.385470
0.390390
0.400250
0.410100
0.415020
0.419950
0.429800
0.439660
0.449510
0.460590
0.480300
0.504930
0.534480
0.565270
0.589900
0.614530
0.630540
0.635470
0.624380
0.599750
0.570200
0.539410
0.514780
0.480300
0.460590
0.444580
0.434730
0.429800
0.429800
0.429800
0.429800
0.434730
0.439660
0.444580
0.449510
0.454430
0.454430
0.454430
0.454430
0.454430
0.454430
0.454430
0.454430
0.465520
0.480300
0.495070
0.504930
0.524630
0.550490
0.555420
0.545570
0.539410
0.514780
0.485220
0.449510
0.424880
0.415020
0.410100
0.400250
0.400250
0.400250
0.400250
0.410100
0.449510
0.555420
0.759850
0.975370
1.004900
0.679800
0.449510
0.369460
0.364530
0.369460
0.375620
0.380540
0.385470
0.390390
0.400250
0.405170
0.415020
0.424880
0.434730
0.439660
0.449510
0.465520
0.485220
0.509850
0.534480
0.565270
0.594830
0.614530
0.630540
0.630540
0.614530
0.589900
0.565270
0.539410
0.514780
0.485220
0.465520
0.449510
0.439660
0.439660
0.439660
0.434730
0.439660
0.439660
0.439660
0.449510
0.449510
0.454430
0.460590
0.460590
0.465520
0.465520
0.465520
0.465520
0.475370
0.485220
0.495070
0.500000
0.524630
0.555420
0.565270
0.560340
0.550490
0.529560
0.504930
0.475370
0.449510
0.434730
0.424880
0.419950
0.419950
0.419950
0.419950
0.429800
0.470440
0.580050
0.800490
1.050500
1.099800
0.779560
0.500000
0.390390
0.375620
0.380540
0.385470
0.390390
0.400250
0.405170
0.415020
0.419950
0.429800
0.434730
0.439660
0.454430
0.465520
0.480300
0.495070
0.519700
0.545570
0.580050
0.609610
0.630540
0.645320
0.650250
0.635470
0.609610
0.584980
0.550490
0.514780
0.485220
0.460590
0.449510
0.434730
0.429800
0.429800
0.429800
0.429800
0.434730
0.434730
0.439660
0.444580
0.449510
0.454430
0.454430
0.454430
0.460590
0.454430
0.454430
0.454430
0.454430
0.465520
0.480300
0.490150
0.509850
0.539410
0.550490
0.545570
0.539410
0.519700
0.495070
0.460590
0.434730
0.419950
0.415020
0.410100
0.405170
0.405170
0.405170
0.415020
0.444580
0.534480
0.730300
0.975370
1.050500
0.805420
0.514780
0.380540
0.354680
0.359610
0.364530
0.375620
0.385470
0.390390
0.395320
0.400250
0.410100
0.419950
0.429800
0.434730
0.444580
0.454430
0.475370
0.495070
0.524630
0.555420
0.584980
0.614530
0.630540
0.635470
0.624380
0.609610
0.580050
0.550490
0.514780
0.490150
0.465520
0.449510
0.439660
0.434730
0.429800
0.429800
0.429800
0.429800
0.434730
0.439660
0.444580
0.449510
0.449510
0.454430
0.454430
0.454430
0.454430
0.449510
0.449510
0.454430
0.475370
0.490150
0.500000
0.519700
0.539410
0.550490
0.550490
0.539410
0.519700
0.495070
0.460590
0.429800
0.415020
0.410100
0.405170
0.405170
0.405170
0.400250
0.410100
0.444580
0.534480
0.725370
0.970440
1.029600
0.769700
0.495070
0.375620
0.364530
0.369460
0.375620
0.385470
0.390390
0.395320
0.400250
0.410100
0.415020
0.419950
0.434730
0.444580
0.454430
0.460590
0.480300
0.500000
0.529560
0.560340
0.589900
0.609610
0.624380
0.630540
0.624380
0.604680
0.580050
0.550490
0.514780
0.490150
0.465520
0.449510
0.439660
0.434730
0.429800
0.429800
0.434730
0.434730
0.434730
0.439660
0.449510
0.449510
0.454430
0.460590
0.460590
0.465520
0.465520
0.465520
0.465520
0.475370
0.490150
0.500000
0.514780
0.539410
0.560340
0.565270
0.550490
0.539410
0.519700
0.490150
0.454430
0.429800
0.419950
0.415020
0.410100
0.410100
0.405170
0.410100
0.415020
0.465520
0.575120
0.789410
1.000000
1.024600
0.684730
0.449510
0.369460
0.364530
0.375620
0.380540
0.385470
0.390390
0.395320
0.400250
0.410100
0.419950
0.429800
0.434730
0.444580
0.454430
0.470440
0.490150
0.514780
0.539410
0.570200
0.599750
0.619460
0.630540
0.630540
0.614530
0.589900
0.565270
0.534480
0.504930
0.480300
0.460590
0.449510
0.434730
0.429800
0.429800
0.429800
0.434730
0.434730
0.439660
0.444580
0.449510
0.454430
0.460590
0.460590
0.465520
0.460590
0.460590
0.460590
0.460590
0.470440
0.485220
0.500000
0.509850
0.539410
0.555420
0.550490
0.545570
0.529560
0.504930
0.470440
0.434730
0.415020
0.410100
0.400250
0.400250
0.400250
0.395320
0.400250
0.419950
0.475370
0.609610
0.839900
1.000000
0.869460
0.580050
0.405170
0.359610
0.364530
0.369460
0.375620
0.380540
0.385470
0.390390
0.400250
0.410100
0.415020
0.419950
0.434730
0.444580
0.454430
0.470440
0.490150
0.514780
0.545570
0.580050
0.599750
0.619460
0.630540
0.630540
0.609610
0.584980
0.555420
0.519700
0.495070
0.470440
0.454430
0.439660
0.429800
0.424880
0.424880
0.424880
0.429800
0.434730
0.439660
0.444580
0.449510
0.449510
0.454430
0.460590
0.460590
0.460590
0.460590
0.465520
0.480300
0.495070
0.500000
0.514780
0.539410
0.560340
0.565270
0.550490
0.539410
0.519700
0.490150
0.454430
0.434730
0.424880
0.419950
0.419950
0.419950
0.419950
0.424880
0.449510
0.519700
0.694580
0.954430
1.099800
0.915020
0.594830
0.415020
0.375620
0.380540
0.385470
0.390390
0.390390
0.395320
0.405170
0.415020
0.419950
0.429800
0.439660
0.449510
0.454430
0.465520
0.480300
0.500000
0.529560
0.560340
0.589900
0.619460
0.635470
0.645320
0.640390
0.619460
0.589900
0.560340
0.524630
0.495070
0.470440
0.449510
0.439660
0.429800
0.424880
0.424880
0.429800
0.434730
0.434730
0.439660
0.444580
0.449510
0.449510
0.449510
0.449510
0.454430
0.454430
0.454430
0.454430
0.454430
0.470440
0.485220
0.495070
0.509850
0.534480
0.550490
0.550490
0.539410
0.524630
0.500000
0.475370
0.439660
0.419950
0.410100
0.405170
0.400250
0.400250
0.405170
0.410100
0.429800
0.504930
0.674880
0.924880
1.060300
0.874380
0.565270
0.395320
0.354680
0.354680
0.364530
0.369460
0.375620
0.385470
0.390390
0.400250
0.405170
0.415020
0.419950
0.429800
0.439660
0.449510
0.470440
0.490150
0.514780
0.550490
0.580050
0.604680
0.619460
0.624380
0.630540
0.609610
0.580050
0.555420
0.519700
0.495070
0.470440
0.449510
0.434730
0.429800
0.429800
0.424880
0.424880
0.429800
0.434730
0.439660
0.439660
0.449510
0.449510
0.449510
0.454430
0.454430
0.449510
0.449510
0.449510
0.460590
0.475370
0.485220
0.495070
0.514780
0.545570
0.555420
0.545570
0.534480
0.519700
0.490150
0.454430
0.424880
0.410100
0.400250
0.400250
0.400250
0.400250
0.400250
0.405170
0.439660
0.529560
0.725370
0.965520
1.029600
0.764780
0.490150
0.369460
0.354680
0.364530
0.369460
0.375620
0.380540
0.390390
0.395320
0.405170
0.415020
0.419950
0.429800
0.434730
0.444580
0.460590
0.475370
0.495070
0.524630
0.555420
0.589900
0.609610
0.624380
0.630540
0.619460
0.604680
0.575120
0.545570
0.509850
0.480300
0.460590
0.444580
0.434730
0.429800
0.429800
0.429800
0.429800
0.429800
0.429800
0.439660
0.444580
0.449510
0.449510
0.454430
0.454430
0.454430
0.454430
0.454430
0.454430
0.465520
0.480300
0.495070
0.509850
0.534480
0.555420
0.560340
0.545570
0.529560
0.509850
0.475370
0.439660
0.419950
0.410100
0.405170
0.400250
0.400250
0.400250
0.400250
0.415020
0.470440
0.599750
0.830050
1.019700
0.924880
0.630540
0.419950
0.359610
0.364530
0.375620
0.380540
0.385470
0.390390
0.395320
0.400250
0.410100
0.415020
0.424880
0.434730
0.439660
0.449510
0.465520
0.485220
0.509850
0.534480
0.565270
0.589900
0.609610
0.614530
0.609610
0.594830
0.575120
0.545570
0.514780
0.490150
0.465520
0.444580
0.434730
0.419950
0.419950
0.419950
0.415020
0.419950
0.419950
0.424880
0.429800
0.434730
0.434730
0.439660
0.439660
0.439660
0.439660
0.439660
0.444580
0.454430
0.475370
0.485220
0.500000
0.524630
0.545570
0.550490
0.539410
0.524630
0.495070
0.470440
0.434730
0.415020
0.410100
0.405170
0.400250
0.400250
0.400250
0.400250
0.415020
0.470440
0.614530
0.859610
1.034500
0.905170
0.599750
0.410100
0.364530
0.369460
0.375620
0.385470
0.390390
0.395320
0.400250
0.410100
0.419950
0.424880
0.434730
0.444580
0.454430
0.465520
0.480300
0.500000
0.524630
0.560340
0.589900
0.619460
0.640390
0.650250
0.645320
0.630540
0.604680
0.575120
0.545570
0.514780
0.485220
0.460590
0.449510
0.444580
0.439660
0.444580
0.449510
0.449510
0.449510
0.449510
0.454430
0.460590
0.460590
0.465520
0.465520
0.465520
0.465520
0.465520
0.465520
0.470440
0.480300
0.495070
0.500000
0.519700
0.545570
0.560340
0.550490
0.545570
0.529560
0.504930
0.475370
0.444580
0.419950
0.415020
0.415020
0.415020
0.410100
0.410100
0.415020
0.444580
0.539410
0.735220
0.995070
1.075100
0.839900
0.534480
0.385470
0.359610
0.364530
0.369460
0.375620
0.380540
0.385470
0.390390
0.400250
0.405170
0.415020
0.419950
0.429800
0.444580
0.454430
0.470440
0.495070
0.519700
0.555420
0.584980
0.609610
0.624380
0.630540
0.614530
0.599750
0.570200
0.539410
0.509850
0.475370
0.454430
0.444580
0.434730
0.429800
0.424880
0.424880
0.424880
0.429800
0.434730
0.434730
0.434730
0.439660
0.444580
0.449510
0.449510
0.449510
0.449510
0.454430
0.454430
0.460590
0.475370
0.485220
0.500000
0.524630
0.555420
0.560340
0.545570
0.534480
0.514780
0.490150
0.449510
0.424880
0.415020
0.415020
0.410100
0.405170
0.405170
0.405170
0.415020
0.454430
0.555420
0.769700
1.004900
1.044300
0.730300
0.470440
0.369460
0.359610
0.369460
0.375620
0.385470
0.390390
0.395320
0.400250
0.410100
0.415020
0.424880
0.429800
0.439660
0.454430
0.465520
0.480300
0.504930
0.534480
0.565270
0.599750
0.619460
0.630540
0.635470
0.624380
0.599750
0.570200
0.539410
0.504930
0.480300
0.454430
0.439660
0.434730
0.429800
0.424880
0.424880
0.429800
0.429800
0.439660
0.449510
0.454430
0.454430
0.454430
0.454430
0.454430
0.454430
0.454430
0.454430
0.454430
0.470440
0.480300
0.490150
0.509850
0.534480
0.550490
0.545570
0.539410
0.519700
0.495070
0.460590
0.429800
0.415020
0.410100
0.405170
0.400250
0.400250
0.400250
0.400250
0.419950
0.485220
0.635470
0.874380
1.019700
0.864530
0.565270
0.395320
0.354680
0.359610
0.369460
0.375620
0.380540
0.385470
0.390390
0.395320
0.410100
0.415020
0.429800
0.434730
0.444580
0.454430
0.470440
0.490150
0.519700
0.550490
0.580050
0.604680
0.619460
0.624380
0.619460
0.604680
0.584980
0.555420
0.524630
0.495070
0.470440
0.454430
0.439660
0.434730
0.429800
0.429800
0.429800
0.434730
0.434730
0.439660
0.439660
0.449510
0.449510
0.449510
0.454430
0.454430
0.454430
0.449510
0.449510
0.454430
0.470440
0.485220
0.495070
0.514780
0.545570
0.555420
0.550490
0.539410
0.519700
0.495070
0.454430
0.429800
0.415020
0.405170
0.400250
0.400250
0.400250
0.400250
0.410100
0.434730
0.509850
0.684730
0.924880
1.014800
0.805420
0.524630
0.385470
0.359610
0.364530
0.369460
0.375620
0.385470
0.390390
0.395320
0.405170
0.415020
0.419950
0.424880
0.434730
0.439660
0.454430
0.470440
0.490150
0.519700
0.550490
0.580050
0.599750
0.609610
0.614530
0.609610
0.594830
0.570200
0.539410
0.514780
0.480300
0.460590
0.439660
0.429800
0.419950
0.419950
0.419950
0.419950
0.419950
0.424880
0.429800
0.429800
0.434730
0.439660
0.449510
0.449510
0.449510
0.449510
0.449510
0.449510
0.460590
0.475370
0.485220
0.500000
0.529560
0.555420
0.560340
0.539410
0.529560
0.504930
0.470440
0.434730
0.419950
0.410100
0.410100
0.410100
0.410100
0.405170
0.405170
0.415020
0.470440
0.609610
0.849750
1.019700
0.890390
0.589900
0.410100
0.364530
0.369460
0.375620
0.385470
0.390390
0.400250
0.405170
0.415020
0.419950
0.429800
0.434730
0.444580
0.454430
0.465520
0.480300
0.500000
0.524630
0.555420
0.589900
0.619460
0.640390
0.650250
0.645320
0.630540
0.599750
0.570200
0.539410
0.509850
0.480300
0.460590
0.449510
0.439660
0.434730
0.434730
0.434730
0.439660
0.439660
0.444580
0.449510
0.454430
0.460590
0.460590
0.460590
0.460590
0.460590
0.460590
0.460590
0.460590
0.470440
0.485220
0.495070
0.504930
0.534480
0.545570
0.550490
0.534480
0.524630
0.500000
0.475370
0.439660
0.419950
0.415020
0.410100
0.410100
0.410100
0.405170
0.410100
0.434730
0.514780
0.689660
0.949510
1.080000
0.890390
0.575120
0.395320
0.354680
0.354680
0.364530
0.369460
0.369460
0.380540
0.385470
0.395320
0.405170
0.415020
0.429800
0.434730
0.444580
0.454430
0.470440
0.490150
0.514780
0.545570
0.580050
0.604680
0.624380
0.630540
0.624380
0.604680
0.580050
0.550490
0.519700
0.495070
0.470440
0.449510
0.439660
0.434730
0.429800
0.424880
0.424880
0.429800
0.434730
0.439660
0.449510
0.449510
0.449510
0.454430
0.454430
0.454430
0.454430
0.449510
0.449510
0.449510
0.460590
0.480300
0.495070
0.509850
0.534480
0.550490
0.550490
0.539410
0.524630
0.500000
0.470440
0.434730
0.419950
0.410100
0.405170
0.400250
0.395320
0.395320
0.400250
0.424880
0.485220
0.640390
0.885470
1.039400
0.885470
0.584980
0.405170
0.359610
0.364530
0.369460
0.375620
0.380540
0.385470
0.395320
0.400250
0.410100
0.419950
0.429800
0.434730
0.444580
0.454430
0.475370
0.490150
0.514780
0.550490
0.580050
0.604680
0.624380
0.630540
0.624380
0.609610
0.584980
0.555420
0.519700
0.495070
0.470440
0.449510
0.434730
0.424880
0.424880
0.424880
0.429800
0.429800
0.434730
0.439660
0.444580
0.449510
0.454430
0.454430
0.454430
0.454430
0.454430
0.454430
0.454430
0.454430
0.465520
0.480300
0.490150
0.509850
0.534480
0.550490
0.555420
0.539410
0.524630
0.500000
0.465520
0.434730
0.415020
0.410100
0.405170
0.400250
0.400250
0.400250
0.400250
0.424880
0.490150
0.650250
0.890390
1.029600
0.859610
0.560340
0.390390
0.354680
0.364530
0.369460
0.375620
0.380540
0.385470
0.395320
0.400250
0.410100
0.419950
0.429800
0.439660
0.449510
0.460590
0.475370
0.495070
0.519700
0.550490
0.580050
0.609610
0.624380
0.630540
0.630540
0.614530
0.584980
0.560340
0.524630
0.495070
0.470440
0.454430
0.439660
0.434730
0.429800
0.429800
0.429800
0.434730
0.439660
0.439660
0.449510
0.449510
0.454430
0.454430
0.454430
0.454430
0.454430
0.460590
0.460590
0.465520
0.475370
0.490150
0.500000
0.519700
0.550490
0.560340
0.560340
0.550490
0.529560
0.500000
0.465520
0.434730
0.419950
0.410100
0.410100
0.405170
0.405170
0.405170
0.410100
0.439660
0.514780
0.684730
0.929800
1.014800
0.805420
0.519700
0.385470
0.364530
0.369460
0.375620
0.380540
0.385470
0.395320
0.400250
0.410100
0.415020
0.424880
0.434730
0.439660
0.454430
0.465520
0.480300
0.500000
0.529560
0.560340
0.589900
0.614530
0.630540
0.640390
0.630540
0.609610
0.584980
0.555420
0.519700
0.490150
0.470440
0.454430
0.444580
0.434730
0.434730
0.434730
0.434730
0.434730
0.439660
0.439660
0.439660
0.444580
0.449510
0.449510
0.454430
0.449510
0.449510
0.449510
0.449510
0.454430
0.465520
0.480300
0.490150
0.514780
0.539410
0.550490
0.545570
0.534480
0.514780
0.490150
0.454430
0.424880
0.410100
0.405170
0.400250
0.400250
0.395320
0.395320
0.405170
0.434730
0.514780
0.694580
0.929800
0.990150
0.730300
0.475370
0.369460
0.354680
0.364530
0.369460
0.375620
0.380540
0.385470
0.390390
0.400250
0.410100
0.415020
0.424880
0.429800
0.439660
0.454430
0.470440
0.490150
0.514780
0.545570
0.570200
0.599750
0.614530
0.619460
0.609610
0.594830
0.570200
0.539410
0.509850
0.485220
0.465520
0.449510
0.439660
0.429800
0.429800
0.429800
0.429800
0.434730
0.434730
0.439660
0.449510
0.454430
0.454430
0.454430
0.454430
0.460590
0.460590
0.460590
0.460590
0.475370
0.490150
0.500000
0.514780
0.545570
0.560340
0.550490
0.545570
0.529560
0.509850
0.480300
0.444580
0.429800
0.419950
0.415020
0.410100
0.410100
0.410100
0.415020
0.449510
0.539410
0.745070
1.009900
1.089900
0.844830
0.529560
0.390390
0.364530
0.369460
0.375620
0.380540
0.385470
0.395320
0.400250
0.410100
0.419950
0.424880
0.434730
0.439660
0.454430
0.465520
0.480300
0.500000
0.529560
0.560340
0.589900
0.619460
0.635470
0.640390
0.635470
0.609610
0.584980
0.555420
0.519700
0.490150
0.465520
0.449510
0.434730
0.429800
0.424880
0.419950
0.424880
0.429800
0.434730
0.439660
0.439660
0.449510
0.449510
0.449510
0.449510
0.449510
0.454430
0.449510
0.449510
0.449510
0.460590
0.480300
0.495070
0.509850
0.534480
0.550490
0.555420
0.545570
0.529560
0.504930
0.475370
0.439660
0.419950
0.415020
0.410100
0.405170
0.405170
0.405170
0.410100
0.434730
0.504930
0.665020
0.919950
1.060300
0.885470
0.575120
0.395320
0.354680
0.359610
0.369460
0.375620
0.380540
0.385470
0.390390
0.395320
0.410100
0.415020
0.429800
0.434730
0.449510
0.460590
0.475370
0.495070
0.519700
0.550490
0.580050
0.604680
0.624380
0.635470
0.630540
0.609610
0.584980
0.555420
0.524630
0.495070
0.470440
0.449510
0.439660
0.434730
0.429800
0.429800
0.429800
0.429800
0.434730
0.439660
0.439660
0.449510
0.449510
0.454430
0.454430
0.454430
0.454430
0.449510
0.449510
0.454430
0.470440
0.485220
0.495070
0.509850
0.534480
0.550490
0.555420
0.545570
0.524630
0.500000
0.470440
0.434730
0.419950
0.415020
0.410100
0.405170
0.400250
0.400250
0.410100
0.429800
0.500000
0.655170
0.895320
1.034500
0.864530
0.570200
0.400250
0.364530
0.369460
0.375620
0.380540
0.385470
0.390390
0.395320
0.405170
0.415020
0.424880
0.434730
0.439660
0.444580
0.454430
0.470440
0.495070
0.519700
0.550490
0.584980
0.609610
0.624380
0.630540
0.630540
0.609610
0.589900
0.560340
0.529560
0.495070
0.475370
0.454430
0.439660
0.434730
0.429800
0.429800
0.429800
0.434730
0.434730
0.439660
0.444580
0.449510
0.449510
0.454430
0.454430
0.454430
0.454430
0.454430
0.454430
0.460590
0.470440
0.485220
0.495070
0.514780
0.545570
0.560340
0.550490
0.539410
0.524630
0.495070
0.465520
0.434730
0.419950
0.410100
0.405170
0.400250
0.400250
0.400250
0.410100
0.434730
0.509850
0.689660
0.934730
1.024600
0.815270
0.524630
0.385470
0.364530
0.369460
0.375620
0.385470
0.385470
0.395320
0.400250
0.410100
0.419950
0.424880
0.434730
0.444580
0.454430
0.465520
0.480300
0.504930
0.529560
0.565270
0.594830
0.619460
0.635470
0.640390
0.635470
0.614530
0.584980
0.560340
0.529560
0.500000
0.470440
0.454430
0.439660
0.429800
0.429800
0.429800
0.429800
0.434730
0.434730
0.439660
0.439660
0.439660
0.449510
0.449510
0.449510
0.449510
0.449510
0.449510
0.449510
0.454430
0.465520
0.480300
0.490150
0.509850
0.539410
0.550490
0.539410
0.529560
0.514780
0.490150
0.449510
0.424880
0.410100
0.400250
0.400250
0.395320
0.395320
0.395320
0.400250
0.429800
0.509850
0.689660
0.919950
0.985220
0.740150
0.480300
0.369460
0.354680
0.369460
0.375620
0.380540
0.385470
0.395320
0.400250
0.410100
0.415020
0.419950
0.429800
0.439660
0.449510
0.460590
0.475370
0.495070
0.524630
0.560340
0.589900
0.614530
0.630540
0.635470
0.624380
0.604680
0.584980
0.555420
0.519700
0.495070
0.475370
0.454430
0.449510
0.439660
0.434730
0.439660
0.439660
0.439660
0.449510
0.449510
0.454430
0.460590
0.460590
0.460590
0.465520
0.465520
0.465520
0.465520
0.465520
0.475370
0.490150
0.500000
0.514780
0.539410
0.555420
0.550490
0.545570
0.529560
0.509850
0.480300
0.449510
0.429800
0.419950
0.415020
0.410100
0.410100
0.410100
0.415020
0.444580
0.524630
0.704430
0.975370
1.109600
0.915020
0.584980
0.405170
0.364530
0.369460
0.375620
0.380540
0.385470
0.390390
0.395320
0.405170
0.415020
0.424880
0.434730
0.439660
0.449510
0.460590
0.475370
0.495070
0.519700
0.555420
0.584980
0.609610
0.624380
0.630540
0.630540
0.609610
0.584980
0.550490
0.519700
0.490150
0.465520
0.444580
0.429800
0.419950
0.419950
0.419950
0.419950
0.424880
0.429800
0.434730
0.439660
0.444580
0.449510
0.449510
0.449510
0.449510
0.454430
0.449510
0.449510
0.449510
0.454430
0.470440
0.485220
0.500000
0.524630
0.545570
0.550490
0.539410
0.524630
0.504930
0.475370
0.439660
0.415020
0.410100
0.405170
0.400250
0.400250
0.400250
0.400250
0.415020
0.475370
0.604680
0.844830
1.039400
0.949510
0.645320
0.429800
0.359610
0.364530
0.375620
0.380540
0.385470
0.390390
0.395320
0.405170
0.415020
0.419950
0.429800
0.434730
0.444580
0.454430
0.470440
0.490150
0.509850
0.545570
0.580050
0.604680
0.624380
0.635470
0.635470
0.619460
0.594830
0.565270
0.534480
0.500000
0.475370
0.454430
0.444580
0.434730
0.429800
0.429800
0.429800
0.429800
0.429800
0.439660
0.444580
0.449510
0.454430
0.454430
0.454430
0.454430
0.454430
0.454430
0.454430
0.454430
0.470440
0.485220
0.500000
0.514780
0.539410
0.560340
0.565270
0.555420
0.539410
0.514780
0.485220
0.449510
0.429800
0.419950
0.415020
0.410100
0.410100
0.410100
0.410100
0.424880
0.485220
0.619460
0.859610
1.034500
0.915020
0.609610
0.415020
0.364530
0.364530
0.369460
0.380540
0.385470
0.390390
0.395320
0.405170
0.415020
0.419950
0.429800
0.434730
0.444580
0.460590
0.475370
0.495070
0.519700
0.550490
0.580050
0.604680
0.624380
0.635470
0.635470
0.619460
0.594830
0.565270
0.534480
0.500000
0.475370
0.460590
0.449510
0.439660
0.434730
0.429800
0.429800
0.434730
0.434730
0.439660
0.449510
0.449510
0.449510
0.454430
0.460590
0.460590
0.460590
0.460590
0.460590
0.460590
0.475370
0.485220
0.500000
0.514780
0.539410
0.560340
0.555420
0.550490
0.534480
0.509850
0.475370
0.444580
0.419950
0.415020
0.410100
0.410100
0.405170
0.400250
0.405170
0.424880
0.490150
0.640390
0.880540
1.029600
0.874380
0.580050
0.400250
0.354680
0.364530
0.375620
0.380540
0.385470
0.390390
0.395320
0.405170
0.415020
0.419950
0.429800
0.434730
0.449510
0.460590
0.475370
0.495070
0.519700
0.550490
0.580050
0.604680
0.624380
0.635470
0.630540
0.614530
0.589900
0.560340
0.524630
0.495070
0.470440
0.449510
0.434730
0.429800
0.419950
0.419950
0.424880
0.429800
0.429800
0.434730
0.439660
0.444580
0.444580
0.444580
0.449510
0.444580
0.444580
0.449510
0.444580
0.449510
0.460590
0.480300
0.490150
0.504930
0.534480
0.550490
0.545570
0.529560
0.514780
0.490150
0.454430
0.429800
0.410100
0.400250
0.400250
0.395320
0.395320
0.395320
0.400250
0.429800
0.500000
0.669950
0.905170
0.985220
0.769700
0.500000
0.380540
0.364530
0.369460
0.380540
0.385470
0.390390
0.395320
0.400250
0.410100
0.419950
0.429800
0.434730
0.449510
0.454430
0.470440
0.490150
0.509850
0.534480
0.565270
0.594830
0.619460
0.635470
0.640390
0.635470
0.619460
0.589900
0.560340
0.529560
0.504930
0.480300
0.465520
0.454430
0.444580
0.439660
0.444580
0.449510
0.449510
0.449510
0.454430
0.460590
0.465520
0.475370
0.475370
0.475370
0.475370
0.475370
0.475370
0.475370
0.485220
0.500000
0.509850
0.519700
0.545570
0.565270
0.560340
0.560340
0.545570
0.524630
0.495070
0.465520
0.444580
0.434730
0.429800
0.424880
0.419950
0.419950
0.424880
0.449510
0.524630
0.694580
0.959360
1.109600
0.939660
0.614530
0.415020
0.369460
0.369460
0.375620
0.375620
0.380540
0.390390
0.395320
0.400250
0.410100
0.419950
0.429800
0.439660
0.454430
0.465520
0.475370
0.495070
0.519700
0.555420
0.584980
0.609610
0.630540
0.635470
0.630540
0.614530
0.589900
0.560340
0.524630
0.495070
0.465520
0.449510
0.434730
0.429800
0.424880
0.424880
0.424880
0.429800
0.429800
0.434730
0.439660
0.444580
0.449510
0.454430
0.454430
0.460590
0.454430
0.454430
0.454430
0.454430
0.470440
0.480300
0.490150
0.504930
0.529560
0.550490
0.550490
0.545570
0.529560
0.509850
0.475370
0.444580
0.424880
0.415020
0.410100
0.410100
0.410100
0.410100
0.410100
0.424880
0.485220
0.635470
0.880540
1.044300
0.910100
0.604680
0.415020
0.364530
0.369460
0.375620
0.380540
0.385470
0.395320
0.400250
0.410100
0.415020
0.429800
0.434730
0.444580
0.454430
0.465520
0.480300
0.500000
0.524630
0.555420
0.584980
0.609610
0.630540
0.635470
0.635470
0.619460
0.589900
0.565270
0.534480
0.500000
0.480300
0.460590
0.449510
0.439660
0.434730
0.434730
0.434730
0.434730
0.439660
0.439660
0.449510
0.449510
0.454430
0.454430
0.454430
0.460590
0.460590
0.460590
0.460590
0.465520
0.475370
0.485220
0.500000
0.519700
0.550490
0.565270
0.560340
0.550490
0.534480
0.509850
0.475370
0.444580
0.424880
0.415020
0.410100
0.410100
0.410100
0.410100
0.410100
0.434730
0.509850
0.679800
0.924880
1.034500
0.839900
0.545570
0.390390
0.364530
0.369460
0.375620
0.380540
0.385470
0.390390
0.400250
0.410100
0.415020
0.419950
0.434730
0.439660
0.449510
0.460590
0.475370
0.495070
0.519700
0.555420
0.584980
0.609610
0.624380
0.630540
0.624380
0.609610
0.584980
0.555420
0.519700
0.495070
0.470440
0.449510
0.434730
0.429800
0.424880
0.424880
0.424880
0.429800
0.434730
0.434730
0.439660
0.444580
0.449510
0.454430
0.454430
0.454430
0.454430
0.454430
0.454430
0.460590
0.475370
0.490150
0.500000
0.519700
0.545570
0.550490
0.545570
0.539410
0.519700
0.490150
0.454430
0.424880
0.410100
0.400250
0.400250
0.400250
0.395320
0.400250
0.410100
0.439660
0.529560
0.720440
0.954430
1.019700
0.764780
0.495070
0.375620
0.359610
0.369460
0.375620
0.375620
0.380540
0.390390
0.395320
0.400250
0.410100
0.415020
0.424880
0.434730
0.444580
0.460590
0.480300
0.500000
0.524630
0.555420
0.589900
0.609610
0.624380
0.630540
0.624380
0.599750
0.570200
0.539410
0.509850
0.480300
0.454430
0.439660
0.429800
0.419950
0.419950
0.419950
0.429800
0.429800
0.429800
0.434730
0.434730
0.439660
0.444580
0.454430
0.454430
0.454430
0.454430
0.454430
0.454430
0.460590
0.475370
0.490150
0.500000
0.524630
0.545570
0.555420
0.550490
0.539410
0.519700
0.490150
0.454430
0.429800
0.415020
0.405170
0.400250
0.400250
0.400250
0.400250
0.410100
0.444580
0.545570
0.745070
0.980300
1.024600
0.730300
0.470440
0.369460
0.359610
0.369460
0.375620
0.380540
0.385470
0.390390
0.400250
0.405170
0.415020
0.419950
0.429800
0.439660
0.454430
0.470440
0.485220
0.509850
0.534480
0.565270
0.594830
0.614530
0.624380
0.630540
0.614530
0.599750
0.570200
0.534480
0.504930
0.475370
0.454430
0.439660
0.429800
0.419950
0.419950
0.419950
0.419950
0.424880
0.429800
0.429800
0.434730
0.439660
0.439660
0.439660
0.439660
0.444580
0.444580
0.444580
0.444580
0.454430
0.470440
0.480300
0.495070
0.519700
0.545570
0.545570
0.534480
0.519700
0.495070
0.465520
0.429800
0.415020
0.400250
0.395320
0.395320
0.395320
0.395320
0.395320
0.410100
0.465520
0.594830
0.820200
0.995070
0.880540
0.584980
0.405170
0.359610
0.364530
0.369460
0.375620
0.390390
0.395320
0.400250
0.405170
0.410100
0.419950
0.429800
0.434730
0.444580
0.454430
0.475370
0.495070
0.519700
0.545570
0.575120
0.599750
0.619460
0.635470
0.630540
0.614530
0.589900
0.565270
0.534480
0.504930
0.480300
0.460590
0.444580
0.439660
0.434730
0.434730
0.434730
0.439660
0.444580
0.449510
0.449510
0.449510
0.460590
0.465520
0.465520
0.465520
0.465520
0.465520
0.465520
0.475370
0.490150
0.500000
0.504930
0.524630
0.555420
0.560340
0.550490
0.545570
0.529560
0.504930
0.475370
0.444580
0.429800
0.424880
0.419950
0.419950
0.415020
0.415020
0.429800
0.485220
0.614530
0.859610
1.089900
1.114500
0.730300
0.470440
0.380540
0.369460
0.369460
0.375620
0.380540
0.390390
0.395320
0.400250
0.410100
0.415020
0.419950
0.429800
0.434730
0.449510
0.465520
0.485220
0.509850
0.539410
0.570200
0.599750
0.619460
0.635470
0.635470
0.619460
0.599750
0.565270
0.534480
0.504930
0.475370
0.454430
0.439660
0.429800
0.429800
0.429800
0.429800
0.429800
0.434730
0.439660
0.439660
0.444580
0.449510
0.454430
0.454430
0.454430
0.454430
0.454430
0.460590
0.454430
0.460590
0.470440
0.485220
0.500000
0.519700
0.545570
0.555420
0.545570
0.539410
0.524630
0.500000
0.460590
0.434730
0.415020
0.410100
0.400250
0.400250
0.400250
0.400250
0.415020
0.444580
0.539410
0.740150
0.985220
1.044300
0.774630
0.495070
0.375620
0.359610
0.369460
0.375620
0.375620
0.385470
0.390390
0.400250
0.410100
0.419950
0.429800
0.434730
0.439660
0.454430
0.465520
0.475370
0.500000
0.529560
0.560340
0.589900
0.614530
0.630540
0.635470
0.630540
0.609610
0.584980
0.555420
0.519700
0.495070
0.470440
0.449510
0.439660
0.429800
0.429800
0.429800
0.429800
0.434730
0.439660
0.444580
0.449510
0.449510
0.454430
0.454430
0.454430
0.454430
0.454430
0.449510
0.449510
0.454430
0.470440
0.485220
0.495070
0.519700
0.545570
0.555420
0.545570
0.539410
0.519700
0.490150
0.454430
0.429800
0.415020
0.405170
0.400250
0.400250
0.400250
0.400250
0.410100
0.444580
0.539410
0.730300
0.975370
1.039400
0.779560
0.500000
0.380540
0.364530
0.369460
0.375620
0.380540
0.385470
0.395320
0.400250
0.410100
0.419950
0.429800
0.434730
0.439660
0.454430
0.465520
0.480300
0.500000
0.534480
0.565270
0.594830
0.619460
0.630540
0.630540
0.624380
0.604680
0.575120
0.545570
0.509850
0.480300
0.460590
0.444580
0.434730
0.429800
0.429800
0.429800
0.429800
0.429800
0.434730
0.439660
0.439660
0.449510
0.449510
0.454430
0.460590
0.454430
0.454430
0.454430
0.454430
0.465520
0.475370
0.490150
0.500000
0.524630
0.550490
0.555420
0.545570
0.534480
0.514780
0.485220
0.449510
0.424880
0.410100
0.405170
0.400250
0.400250
0.400250
0.400250
0.410100
0.444580
0.539410
0.735220
0.959360
1.000000
0.704430
0.454430
0.359610
0.349750
0.369460
0.375620
0.380540
0.385470
0.390390
0.395320
0.400250
0.410100
0.419950
0.429800
0.434730
0.449510
0.465520
0.480300
0.500000
0.524630
0.555420
0.584980
0.604680
0.619460
0.624380
0.609610
0.589900
0.565270
0.539410
0.509850
0.480300
0.460590
0.444580
0.434730
0.429800
0.429800
0.429800
0.429800
0.429800
0.434730
0.439660
0.444580
0.449510
0.454430
0.460590
0.460590
0.460590
0.460590
0.460590
0.460590
0.475370
0.490150
0.500000
0.519700
0.550490
0.565270
0.555420
0.550490
0.534480
0.514780
0.480300
0.449510
0.434730
0.429800
0.424880
0.419950
0.419950
0.419950
0.429800
0.460590
0.560340
0.769700
1.029600
1.094800
0.820200
0.524630
0.390390
0.375620
0.380540
0.385470
0.390390
0.395320
0.400250
0.410100
0.419950
0.429800
0.434730
0.439660
0.449510
0.460590
0.475370
0.490150
0.509850
0.539410
0.570200
0.599750
0.624380
0.640390
0.645320
0.630540
0.604680
0.580050
0.545570
0.514780
0.490150
0.465520
0.449510
0.434730
0.429800
0.424880
0.424880
0.424880
0.429800
0.434730
0.439660
0.439660
0.449510
0.454430
0.454430
0.454430
0.454430
0.454430
0.454430
0.454430
0.454430
0.460590
0.475370
0.490150
0.504930
0.534480
0.550490
0.555420
0.539410
0.524630
0.500000
0.470440
0.434730
0.419950
0.410100
0.410100
0.405170
0.400250
0.400250
0.405170
0.429800
0.504930
0.674880
0.924880
1.050500
0.869460
0.560340
0.390390
0.354680
0.364530
0.369460
0.375620
0.385470
0.385470
0.390390
0.400250
0.410100
0.415020
0.419950
0.429800
0.439660
0.454430
0.465520
0.485220
0.514780
0.545570
0.580050
0.604680
0.624380
0.630540
0.624380
0.604680
0.580050
0.545570
0.514780
0.485220
0.465520
0.449510
0.434730
0.429800
0.419950
0.419950
0.419950
0.424880
0.429800
0.434730
0.434730
0.439660
0.449510
0.449510
0.449510
0.449510
0.449510
0.449510
0.449510
0.449510
0.460590
0.480300
0.495070
0.509850
0.534480
0.550490
0.545570
0.539410
0.519700
0.495070
0.460590
0.429800
0.415020
0.400250
0.400250
0.400250
0.400250
0.400250
0.400250
0.419950
0.485220
0.640390
0.885470
1.029600
0.864530
0.565270
0.385470
0.349750
0.354680
0.364530
0.369460
0.375620
0.385470
0.390390
0.395320
0.405170
0.415020
0.424880
0.434730
0.444580
0.454430
0.470440
0.490150
0.514780
0.539410
0.575120
0.604680
0.619460
0.630540
0.624380
0.609610
0.580050
0.555420
0.519700
0.490150
0.460590
0.444580
0.434730
0.424880
0.419950
0.419950
0.419950
0.424880
0.429800
0.429800
0.429800
0.434730
0.439660
0.444580
0.449510
0.449510
0.449510
0.449510
0.449510
0.454430
0.465520
0.480300
0.495070
0.509850
0.539410
0.550490
0.545570
0.539410
0.519700
0.495070
0.465520
0.434730
0.415020
0.410100
0.400250
0.400250
0.400250
0.400250
0.400250
0.424880
0.490150
0.650250
0.890390
1.024600
0.854680
0.560340
0.395320
0.354680
0.364530
0.375620
0.380540
0.390390
0.390390
0.395320
0.400250
0.410100
0.419950
0.429800
0.434730
0.444580
0.460590
0.475370
0.490150
0.519700
0.550490
0.580050
0.604680
0.624380
0.630540
0.624380
0.609610
0.580050
0.555420
0.519700
0.490150
0.470440
0.449510
0.439660
0.429800
0.424880
0.424880
0.429800
0.429800
0.429800
0.434730
0.439660
0.449510
0.449510
0.449510
0.454430
0.454430
0.454430
0.449510
0.449510
0.454430
0.470440
0.485220
0.495070
0.509850
0.539410
0.550490
0.555420
0.545570
0.524630
0.500000
0.460590
0.429800
0.410100
0.400250
0.400250
0.400250
0.395320
0.395320
0.400250
0.419950
0.485220
0.635470
0.864530
0.995070
0.825120
0.545570
0.390390
0.354680
0.359610
0.364530
0.375620
0.385470
0.395320
0.395320
0.400250
0.410100
0.419950
0.429800
0.434730
0.439660
0.454430
0.470440
0.485220
0.514780
0.545570
0.575120
0.599750
0.619460
0.624380
0.619460
0.604680
0.580050
0.555420
0.519700
0.490150
0.470440
0.449510
0.439660
0.429800
0.424880
0.424880
0.424880
0.429800
0.429800
0.434730
0.434730
0.439660
0.444580
0.449510
0.449510
0.449510
0.454430
0.454430
0.454430
0.470440
0.485220
0.495070
0.509850
0.534480
0.555420
0.560340
0.545570
0.534480
0.514780
0.490150
0.454430
0.434730
0.424880
0.419950
0.419950
0.415020
0.415020
0.419950
0.439660
0.514780
0.689660
0.949510
1.094800
0.919950
0.599750
0.415020
0.369460
0.375620
0.385470
0.390390
0.395320
0.400250
0.410100
0.415020
0.424880
0.434730
0.439660
0.449510
0.454430
0.470440
0.485220
0.504930
0.529560
0.565270
0.599750
0.624380
0.640390
0.645320
0.640390
0.619460
0.589900
0.560340
0.534480
0.500000
0.475370
0.454430
0.439660
0.434730
0.429800
0.429800
0.434730
0.434730
0.434730
0.439660
0.439660
0.444580
0.449510
0.449510
0.449510
0.449510
0.454430
0.454430
0.454430
0.454430
0.460590
0.475370
0.490150
0.500000
0.524630
0.550490
0.555420
0.545570
0.529560
0.509850
0.480300
0.449510
0.424880
0.415020
0.410100
0.410100
0.410100
0.405170
0.410100
0.415020
0.465520
0.594830
0.830050
1.044300
1.055400
0.679800
0.439660
0.364530
0.359610
0.364530
0.369460
0.375620
0.380540
0.390390
0.395320
0.410100
0.415020
0.419950
0.429800
0.439660
0.449510
0.465520
0.480300
0.509850
0.534480
0.565270
0.589900
0.609610
0.624380
0.630540
0.609610
0.589900
0.560340
0.529560
0.500000
0.470440
0.449510
0.439660
0.429800
0.424880
0.419950
0.419950
0.424880
0.429800
0.434730
0.439660
0.439660
0.449510
0.454430
0.454430
0.454430
0.449510
0.449510
0.449510
0.449510
0.460590
0.475370
0.490150
0.500000
0.524630
0.550490
0.555420
0.545570
0.539410
0.519700
0.490150
0.454430
0.424880
0.415020
0.410100
0.405170
0.400250
0.400250
0.400250
0.415020
0.454430
0.565270
0.774630
1.009900
1.044300
0.715520
0.454430
0.364530
0.359610
0.375620
0.385470
0.385470
0.390390
0.395320
0.400250
0.410100
0.415020
0.424880
0.434730
0.444580
0.454430
0.470440
0.490150
0.509850
0.539410
0.570200
0.599750
0.619460
0.630540
0.635470
0.624380
0.599750
0.570200
0.545570
0.514780
0.485220
0.460590
0.444580
0.434730
0.429800
0.429800
0.429800
0.429800
0.429800
0.434730
0.439660
0.444580
0.449510
0.449510
0.449510
0.449510
0.454430
0.454430
0.454430
0.454430
0.465520
0.480300
0.495070
0.509850
0.534480
0.555420
0.560340
0.550490
0.539410
0.514780
0.485220
0.449510
0.429800
0.419950
0.415020
0.410100
0.405170
0.405170
0.405170
0.415020
0.454430
0.565270
0.774630
0.995070
1.024600
0.699510
0.454430
0.369460
0.364530
0.375620
0.375620
0.385470
0.390390
0.395320
0.405170
0.410100
0.419950
0.429800
0.439660
0.449510
0.454430
0.470440
0.485220
0.509850
0.534480
0.570200
0.599750
0.619460
0.630540
0.635470
0.624380
0.599750
0.570200
0.539410
0.509850
0.485220
0.465520
0.449510
0.439660
0.429800
0.429800
0.429800
0.429800
0.434730
0.434730
0.444580
0.449510
0.449510
0.454430
0.454430
0.460590
0.460590
0.460590
0.454430
0.454430
0.465520
0.480300
0.490150
0.500000
0.524630
0.550490
0.555420
0.545570
0.529560
0.509850
0.480300
0.449510
0.419950
0.415020
0.410100
0.405170
0.400250
0.400250
0.400250
0.415020
0.454430
0.565270
0.779560
0.995070
1.019700
0.674880
0.439660
0.359610
0.354680
0.369460
0.375620
0.380540
0.385470
0.390390
0.400250
0.405170
0.415020
0.419950
0.429800
0.434730
0.444580
0.460590
0.480300
0.500000
0.524630
0.555420
0.580050
0.599750
0.609610
0.614530
0.604680
0.584980
0.560340
0.534480
0.504930
0.475370
0.449510
0.429800
0.424880
0.419950
0.415020
0.415020
0.415020
0.419950
0.429800
0.434730
0.434730
0.439660
0.439660
0.439660
0.439660
0.444580
0.439660
0.439660
0.449510
0.460590
0.470440
0.480300
0.500000
0.534480
0.545570
0.550490
0.534480
0.514780
0.490150
0.454430
0.429800
0.415020
0.410100
0.405170
0.405170
0.405170
0.410100
0.415020
0.444580
0.539410
0.745070
0.995070
1.060300
0.779560
0.500000
0.380540
0.364530
0.369460
0.380540
0.385470
0.390390
0.400250
0.410100
0.415020
0.424880
0.434730
0.444580
0.454430
0.460590
0.475370
0.490150
0.514780
0.539410
0.575120
0.609610
0.630540
0.645320
0.650250
0.635470
0.619460
0.589900
0.560340
0.524630
0.495070
0.470440
0.454430
0.439660
0.434730
0.434730
0.434730
0.434730
0.439660
0.439660
0.444580
0.449510
0.454430
0.454430
0.454430
0.454430
0.460590
0.460590
0.454430
0.454430
0.454430
0.460590
0.475370
0.485220
0.500000
0.519700
0.545570
0.550490
0.545570
0.529560
0.514780
0.485220
0.449510
0.429800
0.415020
0.410100
0.405170
0.400250
0.400250
0.400250
0.419950
0.480300
0.624380
0.880540
1.080000
0.980300
0.665020
0.434730
0.359610
0.354680
0.364530
0.369460
0.375620
0.385470
0.390390
0.395320
0.400250
0.410100
0.415020
0.424880
0.434730
0.449510
0.460590
0.480300
0.509850
0.534480
0.565270
0.594830
0.619460
0.624380
0.630540
0.614530
0.589900
0.560340
0.529560
0.500000
0.475370
0.449510
0.434730
0.429800
0.429800
0.424880
0.424880
0.424880
0.429800
0.429800
0.434730
0.439660
0.444580
0.449510
0.449510
0.449510
0.449510
0.449510
0.449510
0.449510
0.454430
0.470440
0.485220
0.495070
0.514780
0.545570
0.555420
0.545570
0.539410
0.519700
0.495070
0.460590
0.429800
0.415020
0.410100
0.405170
0.400250
0.400250
0.400250
0.410100
0.439660
0.524630
0.704430
0.954430
1.044300
0.820200
0.524630
0.385470
0.364530
0.375620
0.380540
0.385470
0.390390
0.390390
0.400250
0.405170
0.415020
0.424880
0.434730
0.444580
0.454430
0.470440
0.490150
0.509850
0.529560
0.560340
0.589900
0.619460
0.630540
0.635470
0.630540
0.609610
0.584980
0.560340
0.524630
0.495070
0.475370
0.454430
0.444580
0.439660
0.434730
0.434730
0.434730
0.434730
0.439660
0.449510
0.449510
0.454430
0.454430
0.454430
0.460590
0.460590
0.460590
0.454430
0.454430
0.454430
0.465520
0.485220
0.495070
0.509850
0.534480
0.555420
0.550490
0.539410
0.529560
0.509850
0.475370
0.439660
0.424880
0.415020
0.410100
0.400250
0.400250
0.400250
0.405170
0.419950
0.475370
0.609610
0.839900
1.019700
0.919950
0.624380
0.419950
0.359610
0.364530
0.369460
0.375620
0.385470
0.390390
0.395320
0.400250
0.410100
0.419950
0.429800
0.429800
0.439660
0.449510
0.465520
0.485220
0.509850
0.539410
0.570200
0.599750
0.619460
0.635470
0.635470
0.619460
0.594830
0.565270
0.529560
0.495070
0.470440
0.454430
0.444580
0.434730
0.429800
0.429800
0.429800
0.429800
0.434730
0.439660
0.449510
0.449510
0.449510
0.454430
0.454430
0.460590
0.460590
0.460590
0.454430
0.454430
0.460590
0.475370
0.495070
0.504930
0.524630
0.550490
0.560340
0.550490
0.539410
0.514780
0.490150
0.454430
0.424880
0.415020
0.410100
0.405170
0.400250
0.400250
0.405170
0.415020
0.449510
0.550490
0.750000
0.975370
1.019700
0.730300
0.480300
0.375620
0.364530
0.369460
0.380540
0.385470
0.390390
0.395320
0.400250
0.410100
0.419950
0.429800
0.439660
0.449510
0.454430
0.465520
0.480300
0.500000
0.529560
0.560340
0.589900
0.609610
0.630540
0.630540
0.619460
0.599750
0.570200
0.539410
0.509850
0.485220
0.460590
0.439660
0.429800
0.424880
0.419950
0.419950
0.419950
0.429800
0.429800
0.434730
0.439660
0.444580
0.444580
0.449510
0.449510
0.449510
0.444580
0.439660
0.439660
0.449510
0.465520
0.480300
0.495070
0.514780
0.539410
0.550490
0.545570
0.534480
0.514780
0.490150
0.454430
0.429800
0.419950
0.415020
0.410100
0.410100
0.410100
0.410100
0.415020
0.454430
0.555420
0.759850
0.995070
1.034500
0.730300
0.475370
0.385470
0.375620
0.385470
0.390390
0.395320
0.400250
0.410100
0.419950
0.424880
0.434730
0.439660
0.449510
0.460590
0.470440
0.480300
0.500000
0.519700
0.555420
0.584980
0.619460
0.645320
0.655170
0.660100
0.650250
0.630540
0.599750
0.570200
0.534480
0.504930
0.480300
0.465520
0.454430
0.449510
0.449510
0.449510
0.449510
0.449510
0.454430
0.454430
0.460590
0.460590
0.460590
0.465520
0.465520
0.465520
0.465520
0.460590
0.460590
0.460590
0.470440
0.485220
0.495070
0.509850
0.534480
0.555420
0.550490
0.539410
0.529560
0.514780
0.485220
0.449510
0.429800
0.424880
0.419950
0.415020
0.415020
0.415020
0.415020
0.439660
0.514780
0.684730
0.949510
1.094800
0.915020
0.589900
0.405170
0.364530
0.369460
0.375620
0.375620
0.380540
0.385470
0.390390
0.400250
0.410100
0.419950
0.429800
0.439660
0.449510
0.460590
0.470440
0.490150
0.514780
0.545570
0.580050
0.604680
0.624380
0.635470
0.630540
0.609610
0.584980
0.550490
0.519700
0.490150
0.465520
0.444580
0.429800
0.424880
0.419950
0.419950
0.419950
0.429800
0.429800
0.434730
0.439660
0.444580
0.449510
0.449510
0.454430
0.460590
0.454430
0.454430
0.449510
0.449510
0.454430
0.475370
0.485220
0.495070
0.514780
0.545570
0.555420
0.550490
0.539410
0.519700
0.495070
0.460590
0.429800
0.415020
0.410100
0.410100
0.410100
0.405170
0.410100
0.415020
0.449510
0.539410
0.735220
0.975370
1.039400
0.784480
0.500000
0.380540
0.364530
0.375620
0.380540
0.385470
0.390390
0.400250
0.405170
0.410100
0.415020
0.424880
0.434730
0.444580
0.454430
0.470440
0.485220
0.504930
0.534480
0.565270
0.594830
0.619460
0.635470
0.640390
0.630540
0.609610
0.584980
0.555420
0.519700
0.490150
0.470440
0.454430
0.444580
0.439660
0.434730
0.434730
0.434730
0.434730
0.439660
0.439660
0.444580
0.449510
0.454430
0.454430
0.460590
0.460590
0.454430
0.454430
0.460590
0.465520
0.475370
0.495070
0.504930
0.519700
0.545570
0.565270
0.560340
0.550490
0.529560
0.504930
0.475370
0.439660
0.424880
0.415020
0.415020
0.415020
0.410100
0.410100
0.415020
0.434730
0.500000
0.660100
0.905170
1.034500
0.864530
0.575120
0.405170
0.364530
0.369460
0.375620
0.385470
0.385470
0.395320
0.395320
0.405170
0.415020
0.419950
0.434730
0.439660
0.454430
0.465520
0.480300
0.500000
0.524630
0.555420
0.584980
0.614530
0.635470
0.640390
0.635470
0.619460
0.589900
0.565270
0.534480
0.500000
0.475370
0.454430
0.444580
0.439660
0.434730
0.429800
0.434730
0.434730
0.439660
0.444580
0.449510
0.449510
0.454430
0.454430
0.454430
0.454430
0.454430
0.449510
0.449510
0.454430
0.465520
0.485220
0.495070
0.504930
0.529560
0.550490
0.550490
0.539410
0.524630
0.500000
0.470440
0.434730
0.419950
0.410100
0.400250
0.400250
0.400250
0.400250
0.405170
0.419950
0.470440
0.599750
0.830050
1.004900
0.895320
0.599750
0.415020
0.364530
0.369460
0.375620
0.380540
0.385470
0.390390
0.395320
0.405170
0.415020
0.424880
0.429800
0.439660
0.449510
0.460590
0.470440
0.490150
0.514780
0.545570
0.580050
0.609610
0.630540
0.635470
0.640390
0.624380
0.599750
0.570200
0.545570
0.514780
0.485220
0.465520
0.449510
0.439660
0.434730
0.434730
0.434730
0.439660
0.439660
0.449510
0.454430
0.454430
0.454430
0.460590
0.465520
0.465520
0.465520
0.465520
0.465520
0.465520
0.475370
0.490150
0.500000
0.514780
0.539410
0.555420
0.550490
0.539410
0.529560
0.509850
0.480300
0.449510
0.429800
0.419950
0.419950
0.415020
0.415020
0.415020
0.419950
0.454430
0.545570
0.735220
1.000000
1.099800
0.880540
0.560340
0.400250
0.369460
0.375620
0.385470
0.390390
0.390390
0.395320
0.400250
0.410100
0.419950
0.424880
0.429800
0.439660
0.449510
0.460590
0.475370
0.500000
0.524630
0.560340
0.589900
0.614530
0.630540
0.640390
0.630540
0.609610
0.580050
0.545570
0.514780
0.480300
0.460590
0.439660
0.424880
0.419950
0.419950
0.419950
0.419950
0.419950
0.424880
0.429800
0.434730
0.434730
0.439660
0.439660
0.444580
0.444580
0.444580
0.444580
0.444580
0.444580
0.454430
0.470440
0.480300
0.495070
0.514780
0.539410
0.545570
0.539410
0.529560
0.509850
0.480300
0.444580
0.419950
0.410100
0.405170
0.405170
0.405170
0.405170
0.410100
0.415020
0.460590
0.584980
0.800490
1.019700
1.044300
0.689660
0.439660
0.359610
0.354680
0.369460
0.375620
0.380540
0.385470
0.390390
0.395320
0.400250
0.410100
0.419950
0.429800
0.439660
0.449510
0.465520
0.485220
0.504930
0.529560
0.560340
0.589900
0.619460
0.630540
0.635470
0.619460
0.599750
0.570200
0.539410
0.504930
0.480300
0.454430
0.439660
0.429800
0.424880
0.424880
0.424880
0.424880
0.429800
0.429800
0.434730
0.439660
0.439660
0.444580
0.449510
0.454430
0.454430
0.449510
0.449510
0.449510
0.454430
0.470440
0.485220
0.495070
0.514780
0.539410
0.550490
0.550490
0.539410
0.519700
0.490150
0.454430
0.429800
0.415020
0.410100
0.405170
0.400250
0.400250
0.400250
0.410100
0.439660
0.524630
0.720440
0.965520
1.034500
0.779560
0.500000
0.375620
0.354680
0.369460
0.375620
0.380540
0.385470
0.390390
0.400250
0.410100
0.415020
0.419950
0.429800
0.444580
0.454430
0.465520
0.480300
0.500000
0.524630
0.555420
0.584980
0.609610
0.630540
0.635470
0.624380
0.604680
0.580050
0.550490
0.519700
0.490150
0.460590
0.444580
0.434730
0.429800
0.429800
0.429800
0.429800
0.434730
0.434730
0.439660
0.444580
0.449510
0.454430
0.454430
0.454430
0.454430
0.460590
0.454430
0.454430
0.460590
0.470440
0.490150
0.500000
0.519700
0.550490
0.560340
0.550490
0.545570
0.524630
0.500000
0.470440
0.434730
0.415020
0.410100
0.405170
0.400250
0.400250
0.400250
0.405170
0.434730
0.504930
0.665020
0.910100
1.024600
0.839900
0.545570
0.395320
0.364530
0.369460
0.375620
0.380540
0.385470
0.395320
0.400250
0.405170
0.410100
0.419950
0.429800
0.439660
0.449510
0.460590
0.475370
0.495070
0.519700
0.545570
0.580050
0.599750
0.619460
0.630540
0.614530
0.599750
0.570200
0.539410
0.509850
0.480300
0.460590
0.439660
0.429800
0.419950
0.415020
0.415020
0.415020
0.415020
0.419950
0.424880
0.429800
0.434730
0.439660
0.439660
0.444580
0.444580
0.439660
0.444580
0.444580
0.454430
0.470440
0.480300
0.490150
0.509850
0.534480
0.545570
0.539410
0.529560
0.509850
0.480300
0.449510
0.429800
0.415020
0.410100
0.405170
0.400250
0.400250
0.400250
0.410100
0.439660
0.539410
0.750000
0.990150
1.034500
0.725370
0.470440
0.375620
0.364530
0.375620
0.385470
0.390390
0.395320
0.400250
0.410100
0.419950
0.429800
0.434730
0.444580
0.454430
0.465520
0.480300
0.495070
0.519700
0.555420
0.584980
0.614530
0.640390
0.655170
0.655170
0.640390
0.619460
0.589900
0.560340
0.529560
0.500000
0.475370
0.460590
0.454430
0.449510
0.444580
0.444580
0.449510
0.449510
0.449510
0.454430
0.460590
0.465520
0.465520
0.470440
0.470440
0.465520
0.465520
0.465520
0.465520
0.470440
0.485220
0.500000
0.504930
0.519700
0.545570
0.560340
0.555420
0.545570
0.529560
0.509850
0.475370
0.444580
0.429800
0.419950
0.415020
0.415020
0.410100
0.410100
0.419950
0.454430
0.545570
0.745070
1.004900
1.089900
0.844830
0.534480
0.390390
0.364530
0.369460
0.375620
0.375620
0.385470
0.390390
0.395320
0.400250
0.410100
0.419950
0.429800
0.434730
0.444580
0.460590
0.475370
0.495070
0.519700
0.550490
0.580050
0.604680
0.624380
0.630540
0.619460
0.599750
0.575120
0.545570
0.509850
0.480300
0.460590
0.449510
0.434730
0.429800
0.419950
0.419950
0.419950
0.429800
0.434730
0.439660
0.439660
0.439660
0.449510
0.454430
0.454430
0.449510
0.449510
0.449510
0.449510
0.454430
0.465520
0.480300
0.495070
0.509850
0.534480
0.550490
0.545570
0.539410
0.524630
0.500000
0.470440
0.434730
0.415020
0.410100
0.405170
0.400250
0.400250
0.400250
0.405170
0.424880
0.485220
0.635470
0.880540
1.039400
0.900250
0.594830
0.405170
0.354680
0.364530
0.369460
0.375620
0.380540
0.385470
0.395320
0.400250
0.410100
0.419950
0.429800
0.439660
0.449510
0.460590
0.470440
0.490150
0.514780
0.545570
0.580050
0.604680
0.619460
0.630540
0.630540
0.609610
0.584980
0.555420
0.524630
0.490150
0.465520
0.449510
0.434730
0.429800
0.424880
0.424880
0.424880
0.429800
0.434730
0.434730
0.439660
0.439660
0.444580
0.449510
0.449510
0.449510
0.449510
0.449510
0.449510
0.454430
0.460590
0.480300
0.490150
0.504930
0.534480
0.550490
0.545570
0.539410
0.524630
0.500000
0.470440
0.439660
0.419950
0.415020
0.410100
0.405170
0.405170
0.405170
0.405170
0.424880
0.485220
0.630540
0.864530
1.029600
0.890390
0.589900
0.405170
0.359610
0.364530
0.375620
0.375620
0.385470
0.390390
0.390390
0.400250
0.410100
0.419950
0.429800
0.434730
0.444580
0.460590
0.475370
0.490150
0.519700
0.555420
0.584980
0.609610
0.624380
0.635470
0.635470
0.619460
0.594830
0.565270
0.524630
0.495070
0.475370
0.454430
0.439660
0.434730
0.429800
0.429800
0.434730
0.439660
0.439660
0.439660
0.444580
0.449510
0.454430
0.454430
0.460590
0.460590
0.460590
0.460590
0.454430
0.454430
0.470440
0.485220
0.495070
0.509850
0.534480
0.550490
0.545570
0.539410
0.524630
0.500000
0.470440
0.434730
0.419950
0.415020
0.410100
0.400250
0.400250
0.400250
0.400250
0.419950
0.475370
0.614530
0.844830
1.004900
0.869460
0.575120
0.400250
0.354680
0.364530
0.369460
0.375620
0.380540
0.385470
0.390390
0.400250
0.400250
0.410100
0.419950
0.429800
0.444580
0.454430
0.470440
0.485220
0.509850
0.539410
0.565270
0.589900
0.609610
0.619460
0.614530
0.604680
0.580050
0.555420
0.524630
0.495070
0.475370
0.454430
0.439660
0.429800
0.429800
0.429800
0.429800
0.429800
0.434730
0.434730
0.439660
0.439660
0.449510
0.449510
0.454430
0.454430
0.454430
0.454430
0.454430
0.465520
0.480300
0.490150
0.500000
0.524630
0.545570
0.550490
0.539410
0.529560
0.514780
0.490150
0.454430
0.429800
0.419950
0.415020
0.410100
0.410100
0.410100
0.410100
0.429800
0.485220
0.614530
0.869460
1.085000
1.089900
0.679800
0.439660
0.364530
0.369460
0.375620
0.380540
0.385470
0.390390
0.400250
0.410100
0.419950
0.429800
0.434730
0.444580
0.454430
0.465520
0.480300
0.500000
0.519700
0.555420
0.584980
0.614530
0.635470
0.645320
0.640390
0.630540
0.604680
0.570200
0.539410
0.509850
0.480300
0.454430
0.439660
0.429800
0.429800
0.424880
0.429800
0.429800
0.429800
0.434730
0.439660
0.439660
0.449510
0.454430
0.454430
0.454430
0.454430
0.449510
0.449510
0.449510
0.454430
0.470440
0.485220
0.495070
0.514780
0.539410
0.550490
0.539410
0.529560
0.514780
0.490150
0.460590
0.429800
0.415020
0.410100
0.405170
0.400250
0.400250
0.400250
0.410100
0.444580
0.550490
0.754930
1.004900
1.060300
0.759850
0.485220
0.369460
0.354680
0.359610
0.369460
0.375620
0.385470
0.390390
0.395320
0.400250
0.405170
0.415020
0.419950
0.434730
0.444580
0.454430
0.475370
0.495070
0.524630
0.560340
0.589900
0.609610
0.630540
0.630540
0.619460
0.599750
0.570200
0.539410
0.509850
0.480300
0.460590
0.439660
0.429800
0.429800
0.424880
0.424880
0.424880
0.429800
0.434730
0.439660
0.444580
0.449510
0.454430
0.454430
0.454430
0.454430
0.449510
0.449510
0.449510
0.454430
0.465520
0.480300
0.495070
0.514780
0.539410
0.550490
0.545570
0.534480
0.514780
0.490150
0.454430
0.429800
0.415020
0.410100
0.400250
0.400250
0.400250
0.400250
0.405170
0.439660
0.529560
0.715520
0.959360
1.029600
0.784480
0.500000
0.380540
0.359610
0.369460
0.375620
0.380540
0.385470
0.395320
0.400250
0.405170
0.410100
0.419950
0.429800
0.434730
0.449510
0.460590
0.480300
0.500000
0.524630
0.560340
0.589900
0.609610
0.630540
0.630540
0.624380
0.599750
0.570200
0.539410
0.514780
0.480300
0.460590
0.439660
0.434730
0.429800
0.424880
0.424880
0.429800
0.434730
0.434730
0.434730
0.439660
0.449510
0.449510
0.449510
0.449510
0.449510
0.449510
0.449510
0.449510
0.454430
0.470440
0.485220
0.495070
0.514780
0.534480
0.545570
0.539410
0.529560
0.509850
0.480300
0.449510
0.419950
0.410100
0.400250
0.400250
0.395320
0.395320
0.395320
0.405170
0.439660
0.534480
0.730300
0.970440
1.029600
0.759850
0.485220
0.369460
0.354680
0.369460
0.375620
0.385470
0.385470
0.390390
0.395320
0.405170
0.410100
0.415020
0.424880
0.434730
0.449510
0.460590
0.475370
0.495070
0.524630
0.560340
0.589900
0.609610
0.624380
0.630540
0.619460
0.599750
0.570200
0.539410
0.509850
0.480300
0.454430
0.439660
0.429800
0.419950
0.415020
0.415020
0.415020
0.419950
0.429800
0.434730
0.434730
0.434730
0.439660
0.439660
0.444580
0.444580
0.444580
0.449510
0.449510
0.460590
0.475370
0.485220
0.495070
0.514780
0.539410
0.545570
0.529560
0.519700
0.495070
0.470440
0.434730
0.415020
0.405170
0.395320
0.395320
0.395320
0.395320
0.395320
0.405170
0.444580
0.550490
0.759850
0.965520
0.985220
0.655170
0.439660
0.364530
0.359610
0.369460
0.375620
0.380540
0.385470
0.390390
0.400250
0.410100
0.415020
0.429800
0.434730
0.439660
0.449510
0.465520
0.480300
0.500000
0.529560
0.565270
0.594830
0.619460
0.630540
0.635470
0.619460
0.599750
0.570200
0.545570
0.514780
0.490150
0.465520
0.449510
0.439660
0.434730
0.429800
0.429800
0.429800
0.434730
0.439660
0.449510
0.449510
0.454430
0.454430
0.460590
0.460590
0.460590
0.460590
0.460590
0.465520
0.480300
0.495070
0.504930
0.519700
0.545570
0.560340
0.545570
0.539410
0.524630
0.500000
0.475370
0.444580
0.429800
0.419950
0.419950
0.415020
0.415020
0.415020
0.419950
0.449510
0.545570
0.754930
1.019700
1.104700
0.854680
0.539410
0.395320
0.369460
0.375620
0.380540
0.385470
0.390390
0.395320
0.405170
0.415020
0.419950
0.429800
0.434730
0.444580
0.454430
0.470440
0.480300
0.500000
0.529560
0.565270
0.594830
0.619460
0.630540
0.635470
0.630540
0.609610
0.580050
0.550490
0.514780
0.485220
0.460590
0.444580
0.434730
0.429800
0.429800
0.429800
0.429800
0.434730
0.439660
0.439660
0.449510
0.454430
0.454430
0.454430
0.454430
0.454430
0.454430
0.454430
0.454430
0.454430
0.470440
0.485220
0.495070
0.509850
0.539410
0.550490
0.545570
0.539410
0.529560
0.504930
0.475370
0.439660
0.419950
0.415020
0.410100
0.405170
0.400250
0.400250
0.410100
0.434730
0.504930
0.674880
0.919950
1.044300
0.864530
0.565270
0.395320
0.359610
0.364530
0.375620
0.385470
0.385470
0.390390
0.395320
0.405170
0.415020
0.419950
0.429800
0.434730
0.444580
0.454430
0.475370
0.495070
0.519700
0.550490
0.580050
0.609610
0.624380
0.635470
0.630540
0.609610
0.589900
0.560340
0.529560
0.495070
0.475370
0.454430
0.439660
0.434730
0.434730
0.434730
0.429800
0.429800
0.434730
0.439660
0.439660
0.444580
0.449510
0.454430
0.454430
0.454430
0.449510
0.449510
0.454430
0.460590
0.475370
0.490150
0.500000
0.519700
0.545570
0.550490
0.545570
0.539410
0.519700
0.495070
0.460590
0.429800
0.415020
0.410100
0.400250
0.400250
0.400250
0.400250
0.410100
0.434730
0.504930
0.679800
0.929800
1.029600
0.820200
0.529560
0.385470
0.354680
0.364530
0.369460
0.375620
0.385470
0.390390
0.395320
0.405170
0.415020
0.419950
0.429800
0.439660
0.449510
0.460590
0.475370
0.495070
0.524630
0.555420
0.584980
0.604680
0.624380
0.630540
0.619460
0.604680
0.575120
0.545570
0.514780
0.485220
0.465520
0.449510
0.439660
0.434730
0.429800
0.434730
0.434730
0.434730
0.434730
0.439660
0.444580
0.449510
0.449510
0.449510
0.454430
0.454430
0.454430
0.449510
0.449510
0.460590
0.475370
0.490150
0.500000
0.524630
0.545570
0.550490
0.545570
0.529560
0.514780
0.485220
0.454430
0.429800
0.415020
0.410100
0.405170
0.405170
0.400250
0.405170
0.410100
0.444580
0.534480
0.730300
0.959360
1.014800
0.745070
0.485220
0.369460
0.354680
0.369460
0.375620
0.380540
0.385470
0.390390
0.400250
0.405170
0.410100
0.419950
0.429800
0.439660
0.449510
0.460590
0.475370
0.500000
0.524630
0.560340
0.589900
0.609610
0.624380
0.630540
0.624380
0.604680
0.580050
0.545570
0.514780
0.485220
0.460590
0.439660
0.434730
0.429800
0.429800
0.429800
0.429800
0.429800
0.434730
0.434730
0.439660
0.444580
0.449510
0.449510
0.449510
0.449510
0.449510
0.449510
0.449510
0.460590
0.475370
0.485220
0.500000
0.529560
0.550490
0.550490
0.539410
0.524630
0.500000
0.475370
0.439660
0.419950
0.410100
0.400250
0.400250
0.400250
0.400250
0.400250
0.415020
0.454430
0.570200
0.784480
0.980300
0.990150
0.630540
0.424880
0.359610
0.359610
0.369460
0.375620
0.385470
0.390390
0.395320
0.400250
0.410100
0.415020
0.429800
0.434730
0.444580
0.454430
0.470440
0.490150
0.509850
0.539410
0.570200
0.599750
0.619460
0.630540
0.630540
0.614530
0.594830
0.565270
0.539410
0.514780
0.490150
0.470440
0.454430
0.439660
0.434730
0.434730
0.439660
0.439660
0.439660
0.444580
0.449510
0.454430
0.460590
0.460590
0.465520
0.465520
0.465520
0.465520
0.470440
0.480300
0.495070
0.500000
0.509850
0.534480
0.555420
0.560340
0.545570
0.534480
0.519700
0.490150
0.460590
0.439660
0.424880
0.419950
0.419950
0.419950
0.419950
0.419950
0.434730
0.495070
0.640390
0.895320
1.099800
1.004900
0.679800
0.444580
0.369460
0.369460
0.375620
0.380540
0.385470
0.390390
0.395320
0.405170
0.415020
0.419950
0.429800
0.439660
0.449510
0.460590
0.475370
0.495070
0.519700
0.550490
0.584980
0.614530
0.630540
0.640390
0.635470
0.619460
0.594830
0.565270
0.534480
0.500000
0.475370
0.454430
0.439660
0.429800
0.424880
0.424880
0.424880
0.429800
0.434730
0.434730
0.439660
0.444580
0.449510
0.449510
0.449510
0.449510
0.449510
0.449510
0.449510
0.449510
0.460590
0.475370
0.490150
0.500000
0.524630
0.545570
0.545570
0.539410
0.524630
0.504930
0.475370
0.439660
0.415020
0.410100
0.410100
0.405170
0.400250
0.400250
0.400250
0.424880
0.485220
0.624380
0.864530
1.050500
0.929800
0.619460
0.410100
0.354680
0.359610
0.369460
0.375620
0.380540
0.385470
0.395320
0.405170
0.410100
0.419950
0.429800
0.434730
0.444580
0.454430
0.475370
0.495070
0.519700
0.545570
0.580050
0.609610
0.630540
0.640390
0.635470
0.624380
0.599750
0.570200
0.539410
0.504930
0.480300
0.460590
0.449510
0.439660
0.434730
0.429800
0.434730
0.434730
0.434730
0.444580
0.449510
0.454430
0.454430
0.454430
0.454430
0.454430
0.454430
0.454430
0.454430
0.460590
0.475370
0.485220
0.500000
0.514780
0.545570
0.560340
0.550490
0.545570
0.529560
0.500000
0.470440
0.434730
0.419950
0.415020
0.410100
0.410100
0.410100
0.410100
0.415020
0.439660
0.514780
0.684730
0.929800
1.029600
0.825120
0.534480
0.390390
0.369460
0.375620
0.385470
0.390390
0.390390
0.395320
0.405170
0.410100
0.419950
0.429800
0.434730
0.449510
0.460590
0.475370
0.490150
0.509850
0.539410
0.565270
0.599750
0.624380
0.640390
0.645320
0.640390
0.619460
0.594830
0.565270
0.539410
0.509850
0.480300
0.460590
0.454430
0.449510
0.439660
0.439660
0.439660
0.439660
0.444580
0.449510
0.454430
0.460590
0.465520
0.465520
0.465520
0.460590
0.460590
0.460590
0.460590
0.475370
0.490150
0.500000
0.514780
0.534480
0.560340
0.565270
0.560340
0.545570
0.524630
0.500000
0.460590
0.434730
0.424880
0.419950
0.415020
0.415020
0.415020
0.415020
0.424880
0.460590
0.565270
0.774630
1.000000
1.039400
0.720440
0.465520
0.380540
0.369460
0.385470
0.390390
0.395320
0.395320
0.400250
0.410100
0.415020
0.419950
0.429800
0.439660
0.449510
0.460590
0.475370
0.495070
0.514780
0.539410
0.570200
0.599750
0.624380
0.635470
0.640390
0.630540
0.609610
0.580050
0.555420
0.519700
0.490150
0.470440
0.454430
0.444580
0.439660
0.434730
0.439660
0.439660
0.439660
0.439660
0.439660
0.444580
0.449510
0.454430
0.454430
0.460590
0.454430
0.454430
0.454430
0.454430
0.460590
0.480300
0.490150
0.500000
0.529560
0.550490
0.545570
0.539410
0.524630
0.500000
0.470440
0.434730
0.415020
0.405170
0.400250
0.400250
0.400250
0.400250
0.400250
0.415020
0.465520
0.589900
0.815270
0.985220
0.869460
0.584980
0.405170
0.359610
0.364530
0.369460
0.375620
0.385470
0.390390
0.390390
0.400250
0.410100
0.415020
0.424880
0.434730
0.444580
0.454430
0.470440
0.490150
0.514780
0.539410
0.570200
0.599750
0.614530
0.624380
0.630540
0.614530
0.589900
0.560340
0.534480
0.504930
0.480300
0.460590
0.449510
0.444580
0.439660
0.439660
0.439660
0.439660
0.444580
0.449510
0.449510
0.454430
0.460590
0.465520
0.465520
0.470440
0.470440
0.465520
0.465520
0.475370
0.485220
0.495070
0.504930
0.534480
0.550490
0.555420
0.539410
0.529560
0.514780
0.485220
0.454430
0.429800
0.419950
0.419950
0.415020
0.415020
0.415020
0.415020
0.434730
0.495070
0.655170
0.910100
1.099800
0.980300
0.655170
0.434730
0.369460
0.375620
0.380540
0.385470
0.390390
0.395320
0.400250
0.410100
0.415020
0.419950
0.429800
0.439660
0.454430
0.465520
0.475370
0.495070
0.519700
0.550490
0.580050
0.609610
0.624380
0.635470
0.630540
0.614530
0.589900
0.565270
0.534480
0.500000
0.475370
0.449510
0.434730
0.429800
0.424880
0.424880
0.424880
0.429800
0.429800
0.434730
0.434730
0.444580
0.449510
0.449510
0.449510
0.449510
0.449510
0.444580
0.444580
0.449510
0.460590
0.475370
0.490150
0.504930
0.529560
0.550490
0.550490
0.539410
0.534480
0.514780
0.485220
0.449510
0.429800
0.415020
0.410100
0.410100
0.400250
0.400250
0.400250
0.415020
0.475370
0.609610
0.854680
1.044300
0.934730
0.624380
0.415020
0.359610
0.354680
0.369460
0.375620
0.375620
0.385470
0.390390
0.400250
0.410100
0.419950
0.429800
0.434730
0.449510
0.460590
0.475370
0.495070
0.519700
0.550490
0.580050
0.604680
0.624380
0.635470
0.635470
0.619460
0.599750
0.570200
0.534480
0.504930
0.480300
0.460590
0.444580
0.434730
0.429800
0.424880
0.424880
0.429800
0.429800
0.434730
0.439660
0.439660
0.444580
0.449510
0.449510
0.449510
0.449510
0.449510
0.449510
0.454430
0.465520
0.480300
0.495070
0.509850
0.534480
0.550490
0.555420
0.539410
0.524630
0.500000
0.470440
0.434730
0.415020
0.410100
0.400250
0.395320
0.395320
0.395320
0.395320
0.419950
0.485220
0.645320
0.885470
1.024600
0.859610
0.565270
0.395320
0.354680
0.354680
0.364530
0.369460
0.375620
0.385470
0.390390
0.395320
0.405170
0.415020
0.424880
0.434730
0.449510
0.460590
0.475370
0.495070
0.519700
0.550490
0.584980
0.609610
0.624380
0.635470
0.630540
0.614530
0.589900
0.560340
0.524630
0.495070
0.475370
0.454430
0.439660
0.434730
0.429800
0.429800
0.429800
0.434730
0.434730
0.439660
0.444580
0.449510
0.449510
0.454430
0.454430
0.454430
0.449510
0.449510
0.454430
0.460590
0.475370
0.490150
0.500000
0.514780
0.539410
0.550490
0.550490
0.539410
0.519700
0.490150
0.460590
0.429800
0.415020
0.410100
0.410100
0.405170
0.400250
0.400250
0.410100
0.439660
0.524630
0.704430
0.949510
1.024600
0.789410
0.514780
0.380540
0.359610
0.369460
0.375620
0.380540
0.390390
0.395320
0.400250
0.410100
0.415020
0.419950
0.429800
0.439660
0.454430
0.465520
0.475370
0.495070
0.524630
0.555420
0.584980
0.609610
0.630540
0.630540
0.624380
0.604680
0.580050
0.545570
0.519700
0.490150
0.465520
0.449510
0.434730
0.429800
0.429800
0.424880
0.424880
0.429800
0.434730
0.434730
0.434730
0.444580
0.449510
0.454430
0.454430
0.454430
0.454430
0.454430
0.454430
0.465520
0.480300
0.495070
0.509850
0.534480
0.555420
0.560340
0.550490
0.539410
0.514780
0.490150
0.454430
0.429800
0.415020
0.410100
0.410100
0.410100
0.410100
0.410100
0.419950
0.460590
0.560340
0.764780
0.985220
1.024600
0.704430
0.460590
0.369460
0.364530
0.375620
0.380540
0.385470
0.390390
0.395320
0.405170
0.410100
0.419950
0.424880
0.434730
0.439660
0.454430
0.470440
0.485220
0.504930
0.524630
0.560340
0.589900
0.609610
0.624380
0.624380
0.614530
0.594830
0.570200
0.539410
0.504930
0.480300
0.460590
0.444580
0.434730
0.429800
0.429800
0.429800
0.429800
0.429800
0.429800
0.434730
0.439660
0.439660
0.444580
0.449510
0.454430
0.449510
0.449510
0.449510
0.454430
0.470440
0.485220
0.495070
0.509850
0.539410
0.550490
0.545570
0.534480
0.519700
0.495070
0.465520
0.439660
0.424880
0.419950
0.415020
0.415020
0.410100
0.415020
0.419950
0.444580
0.529560
0.720440
0.970440
1.044300
0.795570
0.509850
0.385470
0.369460
0.380540
0.390390
0.390390
0.395320
0.400250
0.410100
0.419950
0.429800
0.434730
0.444580
0.454430
0.465520
0.480300
0.495070
0.514780
0.539410
0.570200
0.604680
0.624380
0.640390
0.650250
0.640390
0.619460
0.594830
0.560340
0.524630
0.500000
0.475370
0.454430
0.444580
0.439660
0.434730
0.434730
0.434730
0.439660
0.449510
0.449510
0.449510
0.454430
0.460590
0.465520
0.460590
0.460590
0.454430
0.454430
0.454430
0.460590
0.475370
0.490150
0.495070
0.509850
0.534480
0.545570
0.534480
0.529560
0.519700
0.495070
0.465520
0.434730
0.419950
0.415020
0.410100
0.410100
0.410100
0.410100
0.415020
0.454430
0.560340
0.769700
1.014800
1.075100
0.784480
0.500000
0.380540
0.359610
0.364530
0.369460
0.375620
0.385470
0.390390
0.395320
0.400250
0.410100
0.419950
0.424880
0.434730
0.444580
0.454430
0.470440
0.495070
0.519700
0.555420
0.584980
0.609610
0.624380
0.630540
0.624380
0.599750
0.570200
0.539410
0.509850
0.480300
0.454430
0.439660
0.424880
0.419950
0.419950
0.419950
0.419950
0.424880
0.429800
0.429800
0.439660
0.439660
0.444580
0.449510
0.449510
0.449510
0.449510
0.449510
0.449510
0.454430
0.470440
0.480300
0.495070
0.519700
0.545570
0.550490
0.545570
0.534480
0.519700
0.495070
0.460590
0.434730
0.415020
0.410100
0.400250
0.400250
0.400250
0.405170
0.415020
0.444580
0.534480
0.720440
0.965520
1.034500
0.774630
0.495070
0.369460
0.354680
0.369460
0.375620
0.380540
0.385470
0.390390
0.395320
0.400250
0.410100
0.419950
0.429800
0.434730
0.449510
0.460590
0.475370
0.500000
0.524630
0.555420
0.584980
0.609610
0.630540
0.635470
0.619460
0.599750
0.570200
0.539410
0.509850
0.480300
0.460590
0.444580
0.434730
0.429800
0.424880
0.424880
0.424880
0.429800
0.429800
0.434730
0.439660
0.444580
0.449510
0.449510
0.449510
0.449510
0.449510
0.449510
0.449510
0.454430
0.470440
0.485220
0.500000
0.524630
0.550490
0.555420
0.545570
0.529560
0.514780
0.485220
0.449510
0.424880
0.415020
0.410100
0.400250
0.400250
0.400250
0.400250
0.410100
0.444580
0.550490
0.754930
0.980300
1.024600
0.720440
0.465520
0.369460
0.359610
0.369460
0.375620
0.385470
0.390390
0.395320
0.405170
0.415020
0.419950
0.429800
0.439660
0.449510
0.454430
0.465520
0.485220
0.509850
0.534480
0.570200
0.599750
0.619460
0.630540
0.630540
0.619460
0.599750
0.570200
0.539410
0.509850
0.485220
0.460590
0.444580
0.434730
0.424880
0.419950
0.419950
0.424880
0.429800
0.434730
0.434730
0.434730
0.439660
0.444580
0.444580
0.444580
0.449510
0.444580
0.444580
0.449510
0.460590
0.475370
0.490150
0.500000
0.524630
0.545570
0.550490
0.539410
0.524630
0.500000
0.470440
0.434730
0.415020
0.400250
0.395320
0.395320
0.395320
0.395320
0.395320
0.410100
0.454430
0.570200
0.789410
0.980300
0.895320
0.609610
0.410100
0.354680
0.359610
0.369460
0.375620
0.385470
0.390390
0.395320
0.400250
0.405170
0.415020
0.424880
0.434730
0.444580
0.454430
0.465520
0.480300
0.509850
0.539410
0.570200
0.599750
0.619460
0.635470
0.635470
0.624380
0.599750
0.570200
0.534480
0.504930
0.475370
0.460590
0.444580
0.434730
0.429800
0.429800
0.429800
0.434730
0.439660
0.439660
0.449510
0.454430
0.454430
0.460590
0.460590
0.460590
0.460590
0.460590
0.465520
0.475370
0.490150
0.500000
0.504930
0.529560
0.550490
0.560340
0.550490
0.539410
0.524630
0.495070
0.465520
0.439660
0.429800
0.419950
0.415020
0.415020
0.415020
0.415020
0.429800
0.485220
0.624380
0.869460
1.089900
1.099800
0.699510
0.454430
0.375620
0.369460
0.380540
0.385470
0.385470
0.390390
0.395320
0.400250
0.415020
0.419950
0.429800
0.439660
0.449510
0.460590
0.470440
0.490150
0.514780
0.545570
0.580050
0.604680
0.624380
0.635470
0.635470
0.624380
0.599750
0.570200
0.534480
0.500000
0.475370
0.454430
0.439660
0.429800
0.424880
0.424880
0.424880
0.424880
0.429800
0.434730
0.434730
0.439660
0.444580
0.449510
0.454430
0.454430
0.449510
0.449510
0.449510
0.449510
0.454430
0.470440
0.485220
0.500000
0.519700
0.545570
0.555420
0.550490
0.539410
0.524630
0.495070
0.460590
0.429800
0.415020
0.410100
0.405170
0.405170
0.405170
0.405170
0.415020
0.454430
0.555420
0.769700
1.009900
1.055400
0.735220
0.470440
0.375620
0.364530
0.375620
0.380540
0.385470
0.390390
0.395320
0.400250
0.410100
0.415020
0.424880
0.434730
0.439660
0.454430
0.465520
0.480300
0.504930
0.534480
0.565270
0.599750
0.619460
0.635470
0.635470
0.624380
0.604680
0.575120
0.539410
0.509850
0.475370
0.454430
0.439660
0.434730
0.429800
0.429800
0.429800
0.429800
0.434730
0.434730
0.439660
0.444580
0.444580
0.449510
0.454430
0.454430
0.449510
0.449510
0.444580
0.449510
0.460590
0.475370
0.485220
0.500000
0.519700
0.545570
0.550490
0.545570
0.534480
0.514780
0.485220
0.449510
0.424880
0.415020
0.410100
0.405170
0.400250
0.400250
0.400250
0.410100
0.449510
0.560340
0.769700
0.995070
1.029600
0.704430
0.454430
0.364530
0.354680
0.364530
0.375620
0.385470
0.390390
0.395320
0.400250
0.405170
0.410100
0.419950
0.429800
0.439660
0.449510
0.460590
0.480300
0.500000
0.529560
0.560340
0.594830
0.614530
0.630540
0.630540
0.619460
0.599750
0.570200
0.539410
0.509850
0.480300
0.460590
0.444580
0.434730
0.429800
0.429800
0.424880
0.429800
0.434730
0.439660
0.439660
0.444580
0.449510
0.454430
0.454430
0.454430
0.454430
0.454430
0.454430
0.454430
0.470440
0.485220
0.495070
0.504930
0.529560
0.550490
0.555420
0.545570
0.534480
0.514780
0.490150
0.454430
0.429800
0.415020
0.410100
0.405170
0.405170
0.405170
0.405170
0.415020
0.460590
0.575120
0.789410
1.004900
1.024600
0.674880
0.444580
0.369460
0.364530
0.375620
0.375620
0.380540
0.385470
0.395320
0.400250
0.410100
0.415020
0.424880
0.429800
0.439660
0.449510
0.465520
0.480300
0.500000
0.524630
0.560340
0.589900
0.609610
0.619460
0.624380
0.609610
0.589900
0.560340
0.534480
0.500000
0.475370
0.454430
0.439660
0.429800
0.424880
0.424880
0.424880
0.424880
0.429800
0.434730
0.439660
0.439660
0.439660
0.449510
0.454430
0.454430
0.454430
0.449510
0.449510
0.454430
0.465520
0.480300
0.490150
0.509850
0.539410
0.555420
0.545570
0.539410
0.524630
0.500000
0.470440
0.434730
0.419950
0.410100
0.410100
0.410100
0.410100
0.410100
0.415020
0.444580
0.529560
0.715520
0.959360
1.034500
0.800490
0.514780
0.385470
0.369460
0.375620
0.385470
0.390390
0.395320
0.400250
0.410100
0.415020
0.419950
0.429800
0.434730
0.449510
0.460590
0.475370
0.490150
0.509850
0.539410
0.570200
0.604680
0.630540
0.645320
0.650250
0.640390
0.624380
0.599750
0.565270
0.534480
0.500000
0.480300
0.460590
0.444580
0.439660
0.434730
0.434730
0.434730
0.439660
0.444580
0.449510
0.454430
0.460590
0.465520
0.465520
0.465520
0.470440
0.465520
0.460590
0.460590
0.460590
0.470440
0.485220
0.495070
0.504930
0.534480
0.555420
0.560340
0.539410
0.529560
0.509850
0.480300
0.449510
0.429800
0.419950
0.415020
0.415020
0.415020
0.410100
0.415020
0.434730
0.509850
0.674880
0.934730
1.089900
0.924880
0.604680
0.415020
0.364530
0.364530
0.369460
0.375620
0.380540
0.385470
0.390390
0.400250
0.410100
0.415020
0.419950
0.434730
0.444580
0.460590
0.475370
0.495070
0.519700
0.545570
0.580050
0.609610
0.630540
0.635470
0.635470
0.614530
0.589900
0.560340
0.529560
0.500000
0.475370
0.449510
0.439660
0.434730
0.429800
0.429800
0.429800
0.429800
0.429800
0.434730
0.439660
0.449510
0.449510
0.449510
0.449510
0.449510
0.454430
0.449510
0.449510
0.449510
0.460590
0.475370
0.490150
0.500000
0.524630
0.550490
0.555420
0.545570
0.529560
0.509850
0.480300
0.449510
0.429800
0.415020
0.410100
0.410100
0.405170
0.405170
0.405170
0.415020
0.465520
0.584980
0.810340
1.024600
1.039400
0.674880
0.434730
0.359610
0.354680
0.364530
0.369460
0.375620
0.385470
0.390390
0.395320
0.405170
0.415020
0.424880
0.434730
0.439660
0.454430
0.470440
0.490150
0.509850
0.539410
0.565270
0.594830
0.614530
0.630540
0.635470
0.619460
0.599750
0.570200
0.539410
0.509850
0.480300
0.460590
0.439660
0.429800
0.429800
0.424880
0.429800
0.429800
0.434730
0.434730
0.439660
0.439660
0.449510
0.449510
0.454430
0.449510
0.449510
0.449510
0.449510
0.449510
0.454430
0.475370
0.490150
0.500000
0.524630
0.555420
0.560340
0.550490
0.539410
0.519700
0.490150
0.454430
0.429800
0.415020
0.410100
0.410100
0.410100
0.405170
0.405170
0.415020
0.454430
0.555420
0.759850
0.985220
1.029600
0.725370
0.470440
0.375620
0.364530
0.369460
0.375620
0.385470
0.385470
0.395320
0.400250
0.405170
0.415020
0.424880
0.434730
0.444580
0.454430
0.470440
0.490150
0.509850
0.539410
0.570200
0.599750
0.619460
0.630540
0.635470
0.619460
0.599750
0.570200
0.539410
0.509850
0.480300
0.460590
0.439660
0.434730
0.429800
0.424880
0.424880
0.424880
0.429800
0.429800
0.434730
0.439660
0.444580
0.449510
0.449510
0.449510
0.449510
0.449510
0.449510
0.449510
0.454430
0.470440
0.490150
0.500000
0.519700
0.539410
0.550490
0.545570
0.534480
0.514780
0.490150
0.454430
0.424880
0.415020
0.410100
0.405170
0.400250
0.400250
0.400250
0.410100
0.439660
0.529560
0.715520
0.949510
1.009900
0.764780
0.500000
0.380540
0.364530
0.369460
0.375620
0.380540
0.380540
0.390390
0.395320
0.400250
0.410100
0.419950
0.429800
0.434730
0.449510
0.460590
0.475370
0.495070
0.524630
0.560340
0.589900
0.609610
0.624380
0.630540
0.624380
0.604680
0.580050
0.550490
0.514780
0.485220
0.460590
0.449510
0.434730
0.424880
0.419950
0.419950
0.424880
0.429800
0.429800
0.434730
0.434730
0.439660
0.439660
0.444580
0.449510
0.449510
0.449510
0.449510
0.449510
0.454430
0.470440
0.485220
0.495070
0.509850
0.534480
0.545570
0.550490
0.534480
0.514780
0.490150
0.454430
0.424880
0.410100
0.405170
0.400250
0.395320
0.395320
0.395320
0.405170
0.429800
0.509850
0.684730
0.924880
0.990150
0.745070
0.480300
0.369460
0.354680
0.364530
0.369460
0.375620
0.385470
0.390390
0.395320
0.400250
0.410100
0.415020
0.419950
0.434730
0.444580
0.454430
0.475370
0.495070
0.519700
0.550490
0.580050
0.604680
0.624380
0.630540
0.624380
0.609610
0.584980
0.555420
0.524630
0.495070
0.475370
0.460590
0.449510
0.439660
0.434730
0.434730
0.434730
0.439660
0.439660
0.449510
0.454430
0.454430
0.460590
0.465520
0.465520
0.465520
0.460590
0.460590
0.460590
0.475370
0.490150
0.500000
0.504930
0.524630
0.550490
0.550490
0.545570
0.539410
0.519700
0.490150
0.460590
0.434730
0.424880
0.419950
0.419950
0.419950
0.415020
0.415020
0.434730
0.495070
0.655170
0.915020
1.099800
0.985220
0.655170
0.429800
0.364530
0.364530
0.369460
0.375620
0.385470
0.385470
0.395320
0.400250
0.410100
0.415020
0.424880
0.434730
0.439660
0.454430
0.470440
0.490150
0.509850
0.539410
0.570200
0.604680
0.624380
0.635470
0.630540
0.614530
0.589900
0.560340
0.529560
0.500000
0.470440
0.449510
0.434730
0.424880
0.419950
0.419950
0.419950
0.419950
0.424880
0.429800
0.434730
0.439660
0.439660
0.444580
0.449510
0.449510
0.444580
0.444580
0.444580
0.444580
0.449510
0.460590
0.480300
0.495070
0.509850
0.534480
0.545570
0.539410
0.534480
0.514780
0.490150
0.454430
0.429800
0.415020
0.410100
0.405170
0.400250
0.400250
0.400250
0.410100
0.439660
0.524630
0.709360
0.959360
1.039400
0.805420
0.509850
0.380540
0.354680
0.354680
0.364530
0.369460
0.375620
0.385470
0.390390
0.400250
0.410100
0.419950
0.424880
0.434730
0.449510
0.460590
0.475370
0.495070
0.519700
0.555420
0.584980
0.609610
0.624380
0.635470
0.624380
0.604680
0.580050
0.550490
0.514780
0.485220
0.460590
0.444580
0.434730
0.429800
0.424880
0.424880
0.429800
0.429800
0.429800
0.434730
0.439660
0.444580
0.449510
0.449510
0.449510
0.449510
0.449510
0.449510
0.449510
0.454430
0.470440
0.480300
0.495070
0.509850
0.539410
0.555420
0.550490
0.545570
0.529560
0.504930
0.470440
0.434730
0.419950
0.415020
0.410100
0.410100
0.405170
0.405170
0.410100
0.434730
0.500000
0.660100
0.905170
1.029600
0.859610
0.560340
0.395320
0.359610
0.364530
0.375620
0.375620
0.385470
0.390390
0.395320
0.405170
0.415020
0.419950
0.429800
0.434730
0.449510
0.460590
0.475370
0.500000
0.524630
0.555420
0.584980
0.609610
0.630540
0.635470
0.630540
0.609610
0.584980
0.560340
0.524630
0.495070
0.470440
0.454430
0.439660
0.429800
0.429800
0.429800
0.429800
0.434730
0.434730
0.434730
0.439660
0.444580
0.449510
0.449510
0.449510
0.449510
0.454430
0.449510
0.449510
0.449510
0.460590
0.475370
0.490150
0.509850
0.539410
0.550490
0.555420
0.539410
0.524630
0.500000
0.470440
0.434730
0.419950
0.410100
0.400250
0.400250
0.400250
0.400250
0.405170
0.424880
0.485220
0.630540
0.864530
1.009900
0.859610
0.570200
0.395320
0.354680
0.359610
0.369460
0.369460
0.375620
0.385470
0.390390
0.395320
0.400250
0.410100
0.415020
0.424880
0.434730
0.439660
0.454430
0.480300
0.504930
0.534480
0.560340
0.584980
0.604680
0.614530
0.614530
0.594830
0.570200
0.545570
0.519700
0.490150
0.465520
0.439660
0.429800
0.419950
0.415020
0.410100
0.410100
0.415020
0.419950
0.419950
0.429800
0.429800
0.434730
0.434730
0.439660
0.439660
0.439660
0.439660
0.439660
0.444580
0.454430
0.475370
0.485220
0.509850
0.534480
0.545570
0.539410
0.529560
0.509850
0.480300
0.449510
0.424880
0.410100
0.405170
0.400250
0.400250
0.400250
0.400250
0.405170
0.439660
0.545570
0.754930
1.000000
1.055400
0.745070
0.475370
0.369460
0.354680
0.364530
0.369460
0.375620
0.385470
0.390390
0.395320
0.405170
0.415020
0.424880
0.434730
0.439660
0.454430
0.465520
0.480300
0.509850
0.534480
0.570200
0.599750
0.624380
0.640390
0.645320
0.635470
0.609610
0.580050
0.550490
0.514780
0.480300
0.460590
0.449510
0.434730
0.429800
0.424880
0.424880
0.424880
0.424880
0.429800
0.434730
0.434730
0.439660
0.439660
0.444580
0.449510
0.449510
0.449510
0.449510
0.449510
0.449510
0.460590
0.475370
0.480300
0.495070
0.519700
0.539410
0.545570
0.529560
0.519700
0.500000
0.470440
0.434730
0.419950
0.415020
0.410100
0.410100
0.405170
0.405170
0.410100
0.434730
0.509850
0.684730
0.939660
1.070200
0.885470
0.570200
0.395320
0.354680
0.364530
0.364530
0.369460
0.380540
0.385470
0.390390
0.395320
0.410100
0.419950
0.424880
0.434730
0.444580
0.460590
0.475370
0.495070
0.519700
0.550490
0.584980
0.609610
0.624380
0.635470
0.630540
0.609610
0.584980
0.555420
0.524630
0.490150
0.465520
0.449510
0.434730
0.424880
0.424880
0.424880
0.429800
0.429800
0.434730
0.439660
0.444580
0.449510
0.454430
0.454430
0.460590
0.460590
0.454430
0.454430
0.449510
0.449510
0.460590
0.480300
0.495070
0.504930
0.529560
0.550490
0.555420
0.550490
0.534480
0.509850
0.480300
0.449510
0.429800
0.415020
0.410100
0.410100
0.410100
0.410100
0.410100
0.415020
0.465520
0.589900
0.815270
1.019700
1.024600
0.665020
0.439660
0.364530
0.364530
0.375620
0.380540
0.385470
0.390390
0.400250
0.410100
0.419950
0.429800
0.434730
0.444580
0.454430
0.465520
0.480300
0.495070
0.519700
0.545570
0.580050
0.609610
0.630540
0.640390
0.640390
0.630540
0.604680
0.580050
0.545570
0.514780
0.490150
0.470440
0.454430
0.449510
0.444580
0.444580
0.444580
0.449510
0.449510
0.454430
0.454430
0.454430
0.460590
0.465520
0.465520
0.470440
0.465520
0.465520
0.465520
0.465520
0.475370
0.490150
0.504930
0.519700
0.545570
0.565270
0.570200
0.560340
0.550490
0.529560
0.500000
0.465520
0.439660
0.429800
0.419950
0.415020
0.415020
0.415020
0.415020
0.424880
0.460590
0.560340
0.764780
0.995070
1.034500
0.740150
0.480300
0.390390
0.375620
0.385470
0.390390
0.395320
0.400250
0.405170
0.410100
0.419950
0.429800
0.434730
0.444580
0.454430
0.465520
0.475370
0.495070
0.514780
0.545570
0.580050
0.609610
0.630540
0.640390
0.645320
0.630540
0.609610
0.584980
0.555420
0.519700
0.495070
0.475370
0.460590
0.449510
0.444580
0.439660
0.439660
0.439660
0.439660
0.444580
0.449510
0.454430
0.460590
0.465520
0.465520
0.465520
0.465520
0.465520
0.465520
0.465520
0.475370
0.485220
0.500000
0.504930
0.524630
0.560340
0.565270
0.560340
0.545570
0.519700
0.495070
0.460590
0.434730
0.419950
0.415020
0.415020
0.415020
0.415020
0.419950
0.429800
0.460590
0.550490
0.745070
0.965520
1.009900
0.720440
0.475370
0.385470
0.375620
0.390390
0.395320
0.400250
0.405170
0.415020
0.419950
0.429800
0.434730
0.439660
0.449510
0.460590
0.470440
0.480300
0.500000
0.519700
0.545570
0.580050
0.609610
0.635470
0.650250
0.655170
0.650250
0.630540
0.599750
0.570200
0.539410
0.514780
0.490150
0.470440
0.460590
0.454430
0.454430
0.454430
0.454430
0.460590
0.460590
0.465520
0.470440
0.475370
0.475370
0.480300
0.480300
0.480300
0.480300
0.480300
0.480300
0.490150
0.504930
0.514780
0.519700
0.539410
0.560340
0.565270
0.550490
0.539410
0.524630
0.500000
0.470440
0.444580
0.429800
0.424880
0.419950
0.419950
0.419950
0.419950
0.439660
0.495070
0.645320
0.895320
1.104700
1.004900
0.674880
0.439660
0.369460
0.369460
0.375620
0.385470
0.390390
0.395320
0.400250
0.410100
0.415020
0.419950
0.429800
0.439660
0.449510
0.460590
0.475370
0.495070
0.519700
0.555420
0.584980
0.609610
0.630540
0.640390
0.645320
0.624380
0.599750
0.570200
0.539410
0.504930
0.475370
0.454430
0.439660
0.429800
0.429800
0.429800
0.429800
0.429800
0.434730
0.444580
0.449510
0.449510
0.454430
0.454430
0.454430
0.454430
0.454430
0.454430
0.454430
0.454430
0.460590
0.475370
0.485220
0.495070
0.514780
0.545570
0.555420
0.550490
0.545570
0.524630
0.495070
0.460590
0.434730
0.419950
0.415020
0.410100
0.400250
0.400250
0.400250
0.410100
0.439660
0.529560
0.715520
0.970440
1.044300
0.810340
0.514780
0.380540
0.359610
0.369460
0.375620
0.380540
0.385470
0.390390
0.395320
0.405170
0.410100
0.419950
0.429800
0.439660
0.449510
0.460590
0.475370
0.500000
0.529560
0.560340
0.589900
0.614530
0.630540
0.640390
0.630540
0.609610
0.584980
0.555420
0.524630
0.495070
0.470440
0.454430
0.439660
0.429800
0.429800
0.429800
0.429800
0.429800
0.434730
0.434730
0.439660
0.444580
0.449510
0.449510
0.454430
0.449510
0.449510
0.449510
0.449510
0.454430
0.470440
0.485220
0.495070
0.514780
0.539410
0.555420
0.550490
0.539410
0.524630
0.500000
0.470440
0.434730
0.419950
0.410100
0.405170
0.405170
0.400250
0.400250
0.410100
0.429800
0.500000
0.660100
0.900250
1.029600
0.864530
0.570200
0.400250
0.359610
0.364530
0.375620
0.380540
0.385470
0.390390
0.395320
0.400250
0.410100
0.419950
0.429800
0.434730
0.449510
0.460590
0.475370
0.495070
0.519700
0.550490
0.580050
0.604680
0.624380
0.630540
0.624380
0.609610
0.584980
0.555420
0.524630
0.495070
0.470440
0.449510
0.439660
0.429800
0.424880
0.419950
0.419950
0.424880
0.429800
0.434730
0.439660
0.444580
0.444580
0.449510
0.454430
0.454430
0.454430
0.454430
0.449510
0.454430
0.470440
0.485220
0.495070
0.509850
0.534480
0.550490
0.545570
0.534480
0.524630
0.500000
0.470440
0.434730
0.415020
0.410100
0.405170
0.400250
0.400250
0.400250
0.400250
0.415020
0.470440
0.599750
0.830050
1.000000
0.885470
0.594830
0.405170
0.354680
0.359610
0.364530
0.369460
0.375620
0.380540
0.385470
0.390390
0.400250
0.410100
0.419950
0.424880
0.434730
0.444580
0.454430
0.475370
0.500000
0.524630
0.560340
0.584980
0.604680
0.614530
0.614530
0.604680
0.584980
0.555420
0.519700
0.490150
0.465520
0.449510
0.434730
0.424880
0.424880
0.424880
0.424880
0.429800
0.434730
0.434730
0.434730
0.439660
0.449510
0.454430
0.454430
0.454430
0.454430
0.454430
0.454430
0.460590
0.475370
0.485220
0.495070
0.519700
0.545570
0.555420
0.545570
0.539410
0.519700
0.495070
0.465520
0.439660
0.429800
0.419950
0.415020
0.415020
0.415020
0.415020
0.424880
0.465520
0.575120
0.795570
1.039400
1.085000
0.769700
0.500000
0.390390
0.375620
0.385470
0.390390
0.395320
0.400250
0.410100
0.415020
0.419950
0.429800
0.434730
0.449510
0.454430
0.465520
0.475370
0.490150
0.514780
0.545570
0.580050
0.604680
0.630540
0.640390
0.645320
0.635470
0.609610
0.584980
0.555420
0.514780
0.485220
0.460590
0.449510
0.434730
0.429800
0.429800
0.424880
0.429800
0.429800
0.439660
0.444580
0.449510
0.449510
0.449510
0.454430
0.460590
0.460590
0.454430
0.454430
0.449510
0.454430
0.465520
0.480300
0.490150
0.504930
0.529560
0.550490
0.550490
0.539410
0.529560
0.509850
0.480300
0.444580
0.419950
0.415020
0.410100
0.400250
0.400250
0.400250
0.410100
0.429800
0.490150
0.650250
0.900250
1.055400
0.905170
0.594830
0.405170
0.354680
0.359610
0.369460
0.375620
0.380540
0.385470
0.390390
0.400250
0.405170
0.415020
0.419950
0.429800
0.439660
0.454430
0.470440
0.490150
0.514780
0.545570
0.580050
0.609610
0.624380
0.635470
0.630540
0.609610
0.584980
0.555420
0.524630
0.495070
0.470440
0.449510
0.434730
0.429800
0.424880
0.419950
0.419950
0.429800
0.429800
0.434730
0.434730
0.439660
0.449510
0.449510
0.449510
0.454430
0.454430
0.454430
0.454430
0.454430
0.460590
0.475370
0.495070
0.504930
0.529560
0.555420
0.560340
0.545570
0.534480
0.514780
0.490150
0.454430
0.429800
0.419950
0.410100
0.410100
0.405170
0.405170
0.405170
0.415020
0.454430
0.575120
0.800490
1.014800
1.034500
0.679800
0.439660
0.364530
0.359610
0.375620
0.380540
0.385470
0.385470
0.390390
0.395320
0.405170
0.415020
0.419950
0.429800
0.439660
0.454430
0.465520
0.480300
0.504930
0.534480
0.565270
0.599750
0.619460
0.630540
0.630540
0.614530
0.599750
0.570200
0.539410
0.509850
0.480300
0.460590
0.449510
0.439660
0.434730
0.434730
0.434730
0.434730
0.434730
0.434730
0.439660
0.444580
0.449510
0.449510
0.454430
0.454430
0.454430
0.449510
0.449510
0.454430
0.460590
0.475370
0.495070
0.504930
0.534480
0.555420
0.560340
0.555420
0.545570
0.524630
0.495070
0.460590
0.434730
0.419950
0.415020
0.410100
0.410100
0.410100
0.410100
0.415020
0.454430
0.560340
0.769700
0.990150
1.029600
0.715520
0.465520
0.375620
0.369460
0.380540
0.385470
0.390390
0.395320
0.400250
0.410100
0.415020
0.424880
0.434730
0.439660
0.449510
0.460590
0.475370
0.490150
0.514780
0.539410
0.570200
0.604680
0.624380
0.640390
0.640390
0.630540
0.604680
0.575120
0.545570
0.514780
0.480300
0.460590
0.449510
0.439660
0.434730
0.429800
0.429800
0.434730
0.434730
0.434730
0.439660
0.444580
0.449510
0.454430
0.454430
0.454430
0.454430
0.449510
0.449510
0.449510
0.460590
0.475370
0.495070
0.504930
0.524630
0.550490
0.560340
0.550490
0.539410
0.519700
0.490150
0.454430
0.429800
0.415020
0.400250
0.400250
0.395320
0.395320
0.395320
0.405170
0.439660
0.529560
0.715520
0.939660
0.990150
0.709360
0.470440
0.375620
0.364530
0.369460
0.375620
0.385470
0.390390
0.395320
0.400250
0.410100
0.419950
0.429800
0.434730
0.439660
0.449510
0.460590
0.475370
0.500000
0.524630
0.560340
0.584980
0.609610
0.624380
0.630540
0.624380
0.604680
0.580050
0.550490
0.514780
0.490150
0.470440
0.454430
0.439660
0.434730
0.434730
0.434730
0.434730
0.434730
0.444580
0.449510
0.454430
0.454430
0.460590
0.465520
0.465520
0.465520
0.465520
0.470440
0.470440
0.480300
0.500000
0.504930
0.514780
0.539410
0.560340
0.555420
0.545570
0.529560
0.514780
0.490150
0.454430
0.439660
0.429800
0.419950
0.419950
0.419950
0.419950
0.424880
0.449510
0.529560
0.704430
0.965520
1.104700
0.915020
0.594830
0.410100
0.369460
0.375620
0.380540
0.385470
0.390390
0.395320
0.400250
0.410100
0.415020
0.424880
0.434730
0.439660
0.449510
0.465520
0.480300
0.500000
0.524630
0.555420
0.584980
0.609610
0.630540
0.640390
0.630540
0.609610
0.584980
0.555420
0.524630
0.490150
0.460590
0.444580
0.429800
0.424880
0.419950
0.419950
0.424880
0.424880
0.424880
0.429800
0.434730
0.439660
0.444580
0.449510
0.449510
0.449510
0.449510
0.449510
0.449510
0.449510
0.454430
0.475370
0.485220
0.495070
0.519700
0.545570
0.550490
