0.636360
0.617790
0.599220
0.577710
0.555230
0.532750
0.510260
0.489740
0.470190
0.452590
0.436950
0.423260
0.412510
0.402740
0.395890
0.391010
0.387100
0.382210
0.378300
0.375370
0.371460
0.368520
0.364610
0.360700
0.356790
0.351910
0.348970
0.346040
0.341150
0.336270
0.331380
0.326490
0.320630
0.314760
0.309870
0.304010
0.298140
0.292280
0.287390
0.283480
0.279570
0.275660
0.269790
0.263930
0.259040
0.256110
0.258060
0.266860
0.284460
0.311830
0.348000
0.386120
0.425220
0.472140
0.521020
0.567940
0.609970
0.647120
0.677420
0.701860
0.720430
0.734120
0.743890
0.748780
0.749760
0.748780
0.744870
0.739980
0.733140
0.724340
0.713590
0.701860
0.688170
0.672530
0.654940
0.635390
0.616810
0.598240
0.576740
0.555230
0.531770
0.510260
0.488760
0.469210
0.451610
0.435970
0.422290
0.410560
0.401760
0.394920
0.390030
0.386120
0.382210
0.378300
0.375370
0.372430
0.369500
0.366570
0.362660
0.359730
0.355820
0.351910
0.348970
0.345060
0.341150
0.336270
0.330400
0.325510
0.319650
0.313780
0.307920
0.303030
0.297170
0.292280
0.288370
0.284460
0.279570
0.273700
0.267840
0.263930
0.262950
0.266860
0.279570
0.301080
0.332360
0.371460
0.411530
0.450640
0.496580
0.543500
0.587490
0.626590
0.659820
0.688170
0.709680
0.726300
0.738030
0.744870
0.748780
0.747800
0.745850
0.741940
0.736070
0.728250
0.719450
0.707720
0.695010
0.680350
0.663730
0.646140
0.625610
0.606060
0.587490
0.565980
0.543500
0.520040
0.497560
0.477030
0.458460
0.441840
0.427170
0.415440
0.405670
0.397850
0.392960
0.388070
0.383190
0.379280
0.376340
0.372430
0.369500
0.365590
0.362660
0.358750
0.354840
0.349950
0.347020
0.344090
0.339200
0.335290
0.329420
0.324540
0.318670
0.313780
0.307920
0.302050
0.296190
0.291300
0.287390
0.283480
0.278590
0.273700
0.266860
0.261970
0.258060
0.259040
0.266860
0.282500
0.308900
0.345060
0.389050
0.431090
0.472140
0.519060
0.565000
0.607040
0.644180
0.675460
0.700880
0.720430
0.735090
0.744870
0.749760
0.751710
0.749760
0.746820
0.741940
0.735090
0.723360
0.709680
0.695990
0.681330
0.665690
0.649070
0.629520
0.609970
0.591400
0.572830
0.552300
0.530790
0.510260
0.490710
0.472140
0.455520
0.440860
0.429130
0.418380
0.409580
0.403710
0.399800
0.394920
0.391980
0.388070
0.385140
0.382210
0.379280
0.376340
0.372430
0.368520
0.363640
0.359730
0.355820
0.352880
0.348000
0.344090
0.339200
0.334310
0.328450
0.323560
0.318670
0.314760
0.309870
0.304990
0.301080
0.298140
0.293260
0.288370
0.282500
0.279570
0.279570
0.286410
0.301080
0.325510
0.358750
0.400780
0.447700
0.490710
0.529810
0.572830
0.612900
0.648090
0.678400
0.702830
0.721410
0.734120
0.743890
0.748780
0.749760
0.747800
0.743890
0.738030
0.731180
0.722390
0.711630
0.699900
0.686220
0.670580
0.653960
0.635390
0.614860
0.593350
0.573800
0.554250
0.533720
0.513200
0.492670
0.474100
0.457480
0.442820
0.430110
0.419350
0.410560
0.403710
0.397850
0.393940
0.390030
0.386120
0.382210
0.378300
0.374390
0.369500
0.365590
0.360700
0.355820
0.349950
0.345060
0.341150
0.337240
0.332360
0.327470
0.321600
0.316720
0.310850
0.304990
0.300100
0.294230
0.289350
0.284460
0.280550
0.276640
0.271750
0.266860
0.261000
0.259040
0.260020
0.268820
0.285430
0.312810
0.348970
0.392960
0.440860
0.483870
0.523950
0.565000
0.605080
0.639300
0.667640
0.691100
0.708700
0.722390
0.730210
0.735090
0.737050
0.735090
0.731180
0.726300
0.719450
0.710650
0.699900
0.688170
0.674490
0.658850
0.641250
0.622680
0.602150
0.582600
0.564030
0.542520
0.521020
0.499510
0.478980
0.459430
0.442820
0.427170
0.414470
0.403710
0.395890
0.389050
0.384160
0.380250
0.377320
0.374390
0.370480
0.367550
0.364610
0.360700
0.356790
0.352880
0.348970
0.344090
0.341150
0.337240
0.333330
0.329420
0.324540
0.319650
0.314760
0.308900
0.304010
0.298140
0.292280
0.287390
0.282500
0.277610
0.274680
0.269790
0.263930
0.259040
0.256110
0.258060
0.266860
0.284460
0.310850
0.347020
0.391010
0.432060
0.473120
0.518080
0.562070
0.603130
0.638320
0.667640
0.692080
0.709680
0.723360
0.732160
0.737050
0.739000
0.737050
0.733140
0.727270
0.719450
0.710650
0.698920
0.686220
0.671550
0.655910
0.637340
0.617790
0.596290
0.575760
0.557180
0.535680
0.514170
0.492670
0.472140
0.453570
0.436950
0.421310
0.408600
0.398830
0.390030
0.383190
0.378300
0.374390
0.371460
0.367550
0.364610
0.361680
0.358750
0.355820
0.351910
0.348970
0.345060
0.340180
0.335290
0.331380
0.327470
0.321600
0.316720
0.310850
0.304990
0.299120
0.293260
0.287390
0.282500
0.276640
0.271750
0.267840
0.263930
0.259040
0.253180
0.248290
0.246330
0.249270
0.260020
0.280550
0.310850
0.349950
0.394920
0.437930
0.478980
0.523950
0.566960
0.607040
0.640270
0.668620
0.690130
0.706740
0.718480
0.726300
0.729230
0.730210
0.728250
0.723360
0.716520
0.708700
0.699900
0.688170
0.675460
0.661780
0.645160
0.627570
0.608020
0.587490
0.567940
0.549360
0.529810
0.509290
0.489740
0.471160
0.455520
0.441840
0.430110
0.420330
0.413490
0.407620
0.404690
0.401760
0.400780
0.398830
0.396870
0.394920
0.392960
0.391010
0.390030
0.391980
0.398830
0.410560
0.428150
0.446730
0.468230
0.494620
0.523950
0.553270
0.580650
0.604110
0.622680
0.635390
0.644180
0.648090
0.648090
0.645160
0.638320
0.630500
0.619750
0.606060
0.590420
0.571850
0.551320
0.529810
0.506350
0.481920
0.458460
0.435000
0.414470
0.397850
0.380250
0.363640
0.349950
0.338220
0.328450
0.322580
0.317690
0.315740
0.314760
0.314760
0.314760
0.316720
0.317690
0.318670
0.318670
0.317690
0.315740
0.313780
0.311830
0.308900
0.304990
0.301080
0.297170
0.294230
0.291300
0.288370
0.283480
0.278590
0.273700
0.268820
0.264910
0.260020
0.256110
0.252200
0.248290
0.246330
0.244380
0.242420
0.239490
0.237540
0.234600
0.232650
0.230690
0.229720
0.227760
0.224830
0.221900
0.219940
0.219940
0.221900
0.229720
0.244380
0.267840
0.303030
0.347020
0.398830
0.454550
0.511240
0.565000
0.614860
0.652980
0.682310
0.709680
0.733140
0.751710
0.765400
0.774190
0.778100
0.779080
0.777130
0.772240
0.764420
0.754640
0.743890
0.731180
0.716520
0.700880
0.682310
0.662760
0.641250
0.619750
0.597260
0.573800
0.552300
0.530790
0.513200
0.498530
0.483870
0.471160
0.459430
0.448680
0.440860
0.433040
0.427170
0.422290
0.417400
0.413490
0.409580
0.406650
0.403710
0.399800
0.395890
0.391010
0.386120
0.381230
0.375370
0.370480
0.364610
0.358750
0.352880
0.348000
0.344090
0.339200
0.333330
0.328450
0.322580
0.316720
0.311830
0.305960
0.301080
0.295210
0.290320
0.284460
0.279570
0.277610
0.276640
0.279570
0.290320
0.308900
0.338220
0.376340
0.421310
0.471160
0.521020
0.568910
0.608020
0.640270
0.670580
0.696970
0.717500
0.734120
0.745850
0.752690
0.756600
0.756600
0.754640
0.749760
0.741940
0.734120
0.724340
0.712610
0.699900
0.684260
0.663730
0.639300
0.616810
0.595310
0.574780
0.553270
0.532750
0.514170
0.498530
0.481920
0.466280
0.452590
0.439880
0.429130
0.419350
0.412510
0.405670
0.400780
0.396870
0.392960
0.391010
0.389050
0.386120
0.383190
0.380250
0.377320
0.374390
0.370480
0.366570
0.362660
0.357770
0.353860
0.349950
0.346040
0.342130
0.337240
0.331380
0.326490
0.321600
0.316720
0.311830
0.305960
0.301080
0.295210
0.290320
0.285430
0.283480
0.283480
0.287390
0.298140
0.316720
0.345060
0.380250
0.422290
0.466280
0.511240
0.553270
0.587490
0.614860
0.640270
0.662760
0.680350
0.695010
0.704790
0.710650
0.713590
0.713590
0.711630
0.706740
0.699900
0.692080
0.683280
0.672530
0.660800
0.647120
0.631480
0.613880
0.596290
0.576740
0.557180
0.536660
0.517110
0.500490
0.486800
0.472140
0.458460
0.446730
0.436950
0.429130
0.422290
0.417400
0.413490
0.410560
0.407620
0.406650
0.405670
0.403710
0.401760
0.398830
0.395890
0.392960
0.389050
0.386120
0.382210
0.377320
0.373410
0.368520
0.365590
0.362660
0.358750
0.353860
0.349950
0.345060
0.340180
0.335290
0.330400
0.324540
0.318670
0.312810
0.307920
0.305960
0.305960
0.311830
0.324540
0.345060
0.374390
0.410560
0.452590
0.496580
0.540570
0.580650
0.615840
0.643210
0.662760
0.681330
0.695990
0.706740
0.714570
0.718480
0.719450
0.718480
0.715540
0.709680
0.702830
0.695010
0.685240
0.675460
0.662760
0.649070
0.634410
0.616810
0.599220
0.579670
0.559140
0.538610
0.518080
0.497560
0.481920
0.467250
0.452590
0.439880
0.428150
0.417400
0.409580
0.402740
0.396870
0.392960
0.389050
0.386120
0.384160
0.382210
0.380250
0.377320
0.374390
0.371460
0.367550
0.363640
0.359730
0.354840
0.350930
0.346040
0.342130
0.338220
0.335290
0.331380
0.326490
0.321600
0.317690
0.312810
0.307920
0.303030
0.298140
0.293260
0.287390
0.284460
0.283480
0.285430
0.292280
0.306940
0.329420
0.360700
0.398830
0.441840
0.485830
0.528840
0.568910
0.605080
0.631480
0.652000
0.670580
0.686220
0.697950
0.705770
0.710650
0.712610
0.712610
0.708700
0.703810
0.696970
0.689150
0.679370
0.668620
0.656890
0.643210
0.627570
0.609970
0.591400
0.571850
0.552300
0.531770
0.511240
0.489740
0.473120
0.461390
0.448680
0.435970
0.425220
0.416420
0.408600
0.401760
0.396870
0.392960
0.389050
0.386120
0.384160
0.382210
0.380250
0.378300
0.375370
0.372430
0.368520
0.365590
0.361680
0.357770
0.353860
0.348970
0.338220
0.326490
0.318670
0.311830
0.305960
0.300100
0.294230
0.289350
0.283480
0.277610
0.271750
0.264910
0.260020
0.257090
0.257090
0.261970
0.273700
0.294230
0.323560
0.361680
0.406650
0.455520
0.504400
0.551320
0.593350
0.630500
0.657870
0.678400
0.695990
0.710650
0.722390
0.729230
0.733140
0.734120
0.731180
0.727270
0.720430
0.711630
0.701860
0.690130
0.677420
0.662760
0.646140
0.626590
0.607040
0.584560
0.562070
0.539590
0.516130
0.494620
0.473120
0.456500
0.442820
0.428150
0.416420
0.404690
0.395890
0.389050
0.383190
0.378300
0.375370
0.372430
0.369500
0.367550
0.365590
0.363640
0.360700
0.356790
0.352880
0.348970
0.345060
0.340180
0.334310
0.329420
0.324540
0.320630
0.316720
0.311830
0.306940
0.301080
0.296190
0.290320
0.285430
0.279570
0.273700
0.267840
0.261970
0.258060
0.257090
0.261000
0.269790
0.288370
0.315740
0.351910
0.395890
0.443790
0.493650
0.541540
0.585530
0.623660
0.652980
0.674490
0.694040
0.711630
0.724340
0.731180
0.735090
0.736070
0.734120
0.730210
0.723360
0.715540
0.705770
0.695010
0.683280
0.669600
0.653960
0.636360
0.617790
0.597260
0.574780
0.552300
0.529810
0.508310
0.487780
0.470190
0.455520
0.440860
0.427170
0.415440
0.405670
0.396870
0.390030
0.384160
0.379280
0.375370
0.372430
0.368520
0.366570
0.364610
0.361680
0.357770
0.354840
0.350930
0.346040
0.341150
0.336270
0.331380
0.325510
0.319650
0.314760
0.310850
0.305960
0.300100
0.293260
0.287390
0.281520
0.275660
0.268820
0.261970
0.255130
0.249270
0.246330
0.247310
0.254150
0.268820
0.293260
0.326490
0.367550
0.415440
0.464320
0.514170
0.560120
0.600200
0.635390
0.660800
0.680350
0.696970
0.710650
0.719450
0.725320
0.727270
0.727270
0.723360
0.717500
0.709680
0.700880
0.690130
0.678400
0.665690
0.651030
0.633430
0.614860
0.594330
0.571850
0.548390
0.524930
0.501470
0.478980
0.457480
0.440860
0.427170
0.413490
0.401760
0.391010
0.384160
0.378300
0.374390
0.371460
0.370480
0.369500
0.368520
0.367550
0.367550
0.366570
0.364610
0.362660
0.359730
0.356790
0.352880
0.348970
0.344090
0.340180
0.335290
0.330400
0.326490
0.323560
0.318670
0.314760
0.310850
0.305960
0.299120
0.293260
0.288370
0.284460
0.281520
0.283480
0.291300
0.304990
0.324540
0.354840
0.393940
0.438910
0.487780
0.536660
0.582600
0.624630
0.659820
0.688170
0.710650
0.725320
0.735090
0.741940
0.745850
0.745850
0.743890
0.739980
0.734120
0.725320
0.715540
0.703810
0.690130
0.675460
0.660800
0.645160
0.627570
0.607040
0.586510
0.564030
0.541540
0.519060
0.498530
0.478010
0.460410
0.444770
0.432060
0.422290
0.413490
0.405670
0.398830
0.392960
0.389050
0.384160
0.380250
0.377320
0.373410
0.369500
0.366570
0.364610
0.360700
0.355820
0.350930
0.346040
0.341150
0.335290
0.330400
0.324540
0.319650
0.313780
0.307920
0.304010
0.301080
0.296190
0.292280
0.287390
0.282500
0.276640
0.270770
0.264910
0.261000
0.259040
0.262950
0.271750
0.287390
0.312810
0.347020
0.390030
0.437930
0.487780
0.536660
0.581620
0.621700
0.654940
0.683280
0.704790
0.718480
0.727270
0.734120
0.739000
0.739980
0.739000
0.736070
0.730210
0.722390
0.713590
0.701860
0.689150
0.675460
0.661780
0.645160
0.626590
0.606060
0.583580
0.561090
0.537630
0.515150
0.492670
0.473120
0.454550
0.437930
0.425220
0.415440
0.405670
0.397850
0.391010
0.386120
0.381230
0.377320
0.374390
0.371460
0.367550
0.365590
0.363640
0.361680
0.358750
0.354840
0.350930
0.347020
0.343110
0.338220
0.333330
0.328450
0.323560
0.317690
0.312810
0.308900
0.304990
0.301080
0.296190
0.290320
0.284460
0.278590
0.272730
0.266860
0.263930
0.264910
0.272730
0.285430
0.304010
0.333330
0.372430
0.417400
0.465300
0.514170
0.561090
0.603130
0.639300
0.668620
0.693060
0.711630
0.722390
0.729230
0.734120
0.736070
0.736070
0.733140
0.728250
0.721410
0.713590
0.702830
0.691100
0.677420
0.662760
0.648090
0.631480
0.612900
0.592380
0.569890
0.547410
0.525900
0.503420
0.482890
0.464320
0.446730
0.432060
0.420330
0.411530
0.403710
0.395890
0.390030
0.385140
0.381230
0.377320
0.374390
0.371460
0.368520
0.365590
0.362660
0.360700
0.357770
0.353860
0.349950
0.345060
0.341150
0.336270
0.330400
0.325510
0.319650
0.313780
0.308900
0.304010
0.301080
0.296190
0.291300
0.286410
0.280550
0.273700
0.267840
0.262950
0.262950
0.267840
0.280550
0.299120
0.322580
0.357770
0.400780
0.448680
0.497560
0.544480
0.588470
0.626590
0.658850
0.685240
0.705770
0.720430
0.730210
0.735090
0.738030
0.738030
0.737050
0.732160
0.726300
0.718480
0.708700
0.696970
0.683280
0.668620
0.649070
0.630500
0.615840
0.597260
0.576740
0.555230
0.532750
0.511240
0.490710
0.471160
0.453570
0.437930
0.424240
0.414470
0.406650
0.398830
0.391980
0.387100
0.382210
0.377320
0.374390
0.370480
0.366570
0.362660
0.359730
0.355820
0.351910
0.347020
0.343110
0.338220
0.332360
0.327470
0.321600
0.315740
0.308900
0.303030
0.296190
0.292280
0.288370
0.283480
0.278590
0.273700
0.267840
0.261000
0.255130
0.249270
0.247310
0.250240
0.260020
0.279570
0.303030
0.333330
0.373410
0.421310
0.471160
0.521990
0.568910
0.610950
0.647120
0.677420
0.700880
0.719450
0.730210
0.736070
0.740960
0.741940
0.740960
0.738030
0.732160
0.725320
0.715540
0.704790
0.691100
0.676440
0.659820
0.644180
0.626590
0.607040
0.586510
0.564030
0.541540
0.519060
0.497560
0.478010
0.460410
0.444770
0.431090
0.421310
0.413490
0.406650
0.400780
0.395890
0.391980
0.390030
0.387100
0.384160
0.382210
0.379280
0.375370
0.372430
0.369500
0.366570
0.363640
0.359730
0.354840
0.349950
0.345060
0.340180
0.334310
0.329420
0.323560
0.318670
0.314760
0.311830
0.306940
0.302050
0.296190
0.290320
0.284460
0.280550
0.280550
0.286410
0.300100
0.323560
0.357770
0.392960
0.431090
0.476050
0.535680
0.588470
0.623660
0.656890
0.685240
0.709680
0.728250
0.740960
0.749760
0.753670
0.753670
0.752690
0.748780
0.742910
0.736070
0.726300
0.715540
0.703810
0.689150
0.673510
0.655910
0.636360
0.617790
0.598240
0.576740
0.554250
0.530790
0.508310
0.485830
0.466280
0.447700
0.431090
0.416420
0.404690
0.395890
0.389050
0.383190
0.378300
0.373410
0.370480
0.366570
0.363640
0.360700
0.356790
0.352880
0.348970
0.345060
0.342130
0.339200
0.334310
0.330400
0.325510
0.319650
0.314760
0.308900
0.303030
0.298140
0.292280
0.286410
0.282500
0.279570
0.274680
0.269790
0.263930
0.258060
0.252200
0.248290
0.249270
0.256110
0.271750
0.297170
0.332360
0.369500
0.408600
0.455520
0.504400
0.552300
0.596290
0.634410
0.666670
0.692080
0.711630
0.726300
0.736070
0.740960
0.742910
0.741940
0.739000
0.734120
0.727270
0.718480
0.707720
0.695990
0.681330
0.665690
0.647120
0.627570
0.608990
0.590420
0.568910
0.546430
0.523950
0.501470
0.479960
0.460410
0.442820
0.428150
0.414470
0.403710
0.395890
0.390030
0.384160
0.380250
0.376340
0.372430
0.369500
0.366570
0.363640
0.359730
0.356790
0.352880
0.348970
0.346040
0.343110
0.337240
0.332360
0.327470
0.322580
0.315740
0.309870
0.304990
0.300100
0.295210
0.289350
0.286410
0.282500
0.278590
0.273700
0.267840
0.261000
0.257090
0.255130
0.257090
0.266860
0.285430
0.314760
0.346040
0.382210
0.426200
0.475070
0.523950
0.569890
0.610950
0.645160
0.670580
0.692080
0.708700
0.720430
0.728250
0.731180
0.730210
0.729230
0.725320
0.720430
0.712610
0.703810
0.693060
0.680350
0.666670
0.651030
0.633430
0.615840
0.599220
0.578690
0.557180
0.535680
0.513200
0.492670
0.473120
0.454550
0.438910
0.425220
0.413490
0.403710
0.395890
0.391010
0.386120
0.382210
0.379280
0.376340
0.373410
0.370480
0.367550
0.364610
0.361680
0.357770
0.354840
0.352880
0.348970
0.345060
0.340180
0.335290
0.330400
0.324540
0.318670
0.313780
0.307920
0.303030
0.297170
0.293260
0.290320
0.285430
0.280550
0.274680
0.268820
0.264910
0.264910
0.269790
0.282500
0.304990
0.343110
0.380250
0.411530
0.453570
0.499510
0.544480
0.587490
0.624630
0.655910
0.681330
0.700880
0.715540
0.726300
0.732160
0.734120
0.732160
0.727270
0.721410
0.716520
0.708700
0.695990
0.682310
0.672530
0.658850
0.643210
0.624630
0.607040
0.589440
0.569890
0.548390
0.525900
0.499510
0.472140
0.453570
0.440860
0.424240
0.408600
0.395890
0.389050
0.383190
0.379280
0.376340
0.372430
0.369500
0.365590
0.362660
0.359730
0.356790
0.353860
0.350930
0.348000
0.345060
0.342130
0.338220
0.334310
0.329420
0.324540
0.319650
0.315740
0.311830
0.305960
0.301080
0.296190
0.293260
0.290320
0.285430
0.280550
0.274680
0.270770
0.270770
0.275660
0.287390
0.309870
0.341150
0.381230
0.420330
0.459430
0.504400
0.550340
0.592380
0.630500
0.661780
0.688170
0.707720
0.722390
0.732160
0.738030
0.739980
0.738030
0.734120
0.729230
0.722390
0.713590
0.702830
0.691100
0.677420
0.661780
0.644180
0.625610
0.605080
0.585530
0.566960
0.546430
0.524930
0.504400
0.484850
0.467250
0.450640
0.436950
0.425220
0.416420
0.407620
0.401760
0.396870
0.393940
0.390030
0.387100
0.384160
0.381230
0.377320
0.374390
0.370480
0.365590
0.361680
0.356790
0.352880
0.348970
0.345060
0.339200
0.334310
0.328450
0.323560
0.317690
0.312810
0.306940
0.302050
0.297170
0.293260
0.289350
0.285430
0.279570
0.273700
0.267840
0.264910
0.266860
0.274680
0.292280
0.318670
0.354840
0.397850
0.439880
0.479960
0.524930
0.569890
0.610950
0.646140
0.675460
0.698920
0.716520
0.729230
0.737050
0.741940
0.741940
0.739980
0.736070
0.730210
0.723360
0.714570
0.703810
0.691100
0.677420
0.661780
0.644180
0.625610
0.605080
0.585530
0.566960
0.546430
0.524930
0.504400
0.483870
0.465300
0.447700
0.433040
0.420330
0.409580
0.400780
0.393940
0.388070
0.381230
0.375370
0.371460
0.367550
0.363640
0.360700
0.356790
0.353860
0.349950
0.345060
0.341150
0.337240
0.334310
0.330400
0.325510
0.320630
0.315740
0.310850
0.304990
0.300100
0.294230
0.289350
0.283480
0.279570
0.276640
0.271750
0.265880
0.260020
0.255130
0.253180
0.255130
0.264910
0.283480
0.311830
0.348970
0.392960
0.435970
0.477030
0.521990
0.566960
0.608020
0.643210
0.672530
0.695990
0.713590
0.726300
0.735090
0.739980
0.739980
0.738030
0.734120
0.728250
0.720430
0.710650
0.698920
0.686220
0.671550
0.654940
0.637340
0.616810
0.595310
0.574780
0.555230
0.533720
0.511240
0.489740
0.469210
0.450640
0.434020
0.419350
0.407620
0.397850
0.389050
0.384160
0.380250
0.376340
0.373410
0.370480
0.367550
0.364610
0.362660
0.359730
0.355820
0.352880
0.348970
0.344090
0.341150
0.338220
0.334310
0.329420
0.324540
0.318670
0.312810
0.306940
0.302050
0.296190
0.290320
0.284460
0.280550
0.276640
0.271750
0.265880
0.260020
0.256110
0.254150
0.257090
0.268820
0.288370
0.318670
0.357770
0.402740
0.445750
0.486800
0.530790
0.574780
0.614860
0.649070
0.677420
0.699900
0.717500
0.729230
0.737050
0.741940
0.741940
0.739000
0.735090
0.729230
0.720430
0.710650
0.699900
0.686220
0.670580
0.653960
0.635390
0.614860
0.593350
0.572830
0.553270
0.532750
0.510260
0.489740
0.469210
0.450640
0.435000
0.420330
0.408600
0.398830
0.390030
0.384160
0.380250
0.375370
0.372430
0.368520
0.365590
0.361680
0.358750
0.355820
0.351910
0.347020
0.343110
0.338220
0.334310
0.331380
0.326490
0.321600
0.315740
0.309870
0.304010
0.298140
0.291300
0.285430
0.278590
0.272730
0.268820
0.264910
0.259040
0.253180
0.247310
0.242420
0.240470
0.243400
0.254150
0.274680
0.304990
0.345060
0.385140
0.426200
0.473120
0.521020
0.566960
0.607040
0.642230
0.670580
0.693060
0.709680
0.721410
0.729230
0.733140
0.734120
0.731180
0.727270
0.721410
0.713590
0.703810
0.692080
0.679370
0.664710
0.648090
0.629520
0.608990
0.589440
0.570870
0.548390
0.525900
0.503420
0.480940
0.460410
0.441840
0.425220
0.411530
0.400780
0.391980
0.386120
0.381230
0.379280
0.377320
0.375370
0.374390
0.373410
0.371460
0.370480
0.368520
0.365590
0.362660
0.359730
0.356790
0.353860
0.349950
0.346040
0.341150
0.336270
0.331380
0.326490
0.321600
0.316720
0.311830
0.307920
0.303030
0.299120
0.296190
0.291300
0.286410
0.282500
0.281520
0.286410
0.301080
0.327470
0.360700
0.400780
0.446730
0.489740
0.528840
0.571850
0.612900
0.649070
0.679370
0.704790
0.723360
0.738030
0.746820
0.751710
0.753670
0.752690
0.748780
0.741940
0.734120
0.725320
0.714570
0.701860
0.688170
0.672530
0.655910
0.637340
0.616810
0.595310
0.575760
0.556210
0.535680
0.515150
0.494620
0.475070
0.457480
0.441840
0.428150
0.416420
0.406650
0.398830
0.391980
0.387100
0.384160
0.380250
0.377320
0.373410
0.370480
0.366570
0.362660
0.358750
0.354840
0.349950
0.345060
0.341150
0.338220
0.334310
0.329420
0.323560
0.318670
0.313780
0.307920
0.303030
0.297170
0.292280
0.287390
0.282500
0.278590
0.275660
0.270770
0.264910
0.261000
0.258060
0.261000
0.270770
0.289350
0.317690
0.355820
0.400780
0.443790
0.483870
0.529810
0.573800
0.613880
0.649070
0.678400
0.701860
0.719450
0.732160
0.740960
0.744870
0.745850
0.743890
0.739980
0.733140
0.725320
0.715540
0.704790
0.691100
0.676440
0.659820
0.642230
0.621700
0.601170
0.580650
0.562070
0.540570
0.519060
0.497560
0.477030
0.458460
0.441840
0.428150
0.415440
0.405670
0.397850
0.391010
0.387100
0.384160
0.380250
0.377320
0.375370
0.372430
0.369500
0.366570
0.363640
0.359730
0.355820
0.351910
0.348000
0.345060
0.341150
0.336270
0.331380
0.326490
0.321600
0.315740
0.310850
0.304990
0.300100
0.295210
0.289350
0.285430
0.282500
0.277610
0.271750
0.266860
0.263930
0.266860
0.275660
0.293260
0.319650
0.355820
0.399800
0.440860
0.481920
0.525900
0.570870
0.610950
0.646140
0.675460
0.698920
0.716520
0.730210
0.738030
0.742910
0.743890
0.740960
0.738030
0.732160
0.725320
0.715540
0.704790
0.693060
0.679370
0.663730
0.646140
0.626590
0.606060
0.587490
0.568910
0.547410
0.525900
0.505380
0.484850
0.466280
0.449660
0.435000
0.422290
0.411530
0.401760
0.395890
0.391010
0.386120
0.381230
0.377320
0.374390
0.370480
0.367550
0.363640
0.359730
0.355820
0.351910
0.347020
0.344090
0.340180
0.336270
0.331380
0.325510
0.320630
0.314760
0.308900
0.303030
0.297170
0.291300
0.286410
0.282500
0.278590
0.274680
0.268820
0.262950
0.257090
0.254150
0.254150
0.261970
0.277610
0.304010
0.339200
0.383190
0.425220
0.466280
0.512220
0.557180
0.599220
0.636360
0.666670
0.692080
0.711630
0.725320
0.735090
0.739980
0.740960
0.739980
0.736070
0.730210
0.722390
0.713590
0.702830
0.690130
0.676440
0.660800
0.643210
0.623660
0.603130
0.583580
0.564030
0.541540
0.520040
0.498530
0.478980
0.461390
0.445750
0.432060
0.421310
0.412510
0.405670
0.400780
0.397850
0.395890
0.393940
0.392960
0.391980
0.390030
0.388070
0.386120
0.384160
0.381230
0.378300
0.374390
0.370480
0.367550
0.363640
0.358750
0.353860
0.348970
0.344090
0.339200
0.334310
0.329420
0.324540
0.320630
0.316720
0.312810
0.306940
0.301080
0.296190
0.292280
0.292280
0.299120
0.313780
0.339200
0.373410
0.415440
0.462370
0.504400
0.543500
0.584560
0.622680
0.655910
0.684260
0.706740
0.723360
0.735090
0.741940
0.745850
0.745850
0.743890
0.739000
0.732160
0.723360
0.713590
0.702830
0.690130
0.675460
0.659820
0.642230
0.623660
0.603130
0.581620
0.561090
0.542520
0.522970
0.502440
0.481920
0.463340
0.446730
0.432060
0.419350
0.409580
0.400780
0.392960
0.388070
0.384160
0.381230
0.377320
0.374390
0.371460
0.367550
0.364610
0.360700
0.356790
0.352880
0.348000
0.344090
0.340180
0.336270
0.332360
0.327470
0.322580
0.317690
0.311830
0.306940
0.301080
0.296190
0.290320
0.285430
0.281520
0.278590
0.273700
0.268820
0.263930
0.260020
0.259040
0.263930
0.276640
0.298140
0.329420
0.369500
0.408600
0.447700
0.493650
0.539590
0.582600
0.620720
0.653960
0.680350
0.701860
0.717500
0.728250
0.735090
0.738030
0.738030
0.734120
0.729230
0.722390
0.713590
0.703810
0.692080
0.678400
0.663730
0.648090
0.629520
0.609970
0.591400
0.572830
0.552300
0.531770
0.510260
0.489740
0.471160
0.453570
0.437930
0.424240
0.412510
0.403710
0.395890
0.390030
0.386120
0.383190
0.379280
0.376340
0.373410
0.370480
0.367550
0.364610
0.360700
0.356790
0.352880
0.349950
0.347020
0.343110
0.338220
0.333330
0.328450
0.323560
0.317690
0.312810
0.306940
0.302050
0.297170
0.292280
0.288370
0.285430
0.280550
0.275660
0.269790
0.264910
0.262950
0.266860
0.276640
0.296190
0.324540
0.361680
0.399800
0.437930
0.482890
0.528840
0.572830
0.611930
0.645160
0.673510
0.695010
0.711630
0.723360
0.731180
0.735090
0.735090
0.732160
0.728250
0.722390
0.714570
0.705770
0.695010
0.682310
0.668620
0.652980
0.635390
0.616810
0.598240
0.579670
0.559140
0.537630
0.516130
0.495600
0.475070
0.457480
0.441840
0.427170
0.415440
0.405670
0.397850
0.391980
0.387100
0.383190
0.380250
0.376340
0.373410
0.369500
0.366570
0.363640
0.359730
0.355820
0.351910
0.348000
0.345060
0.341150
0.336270
0.331380
0.326490
0.320630
0.314760
0.306940
0.299120
0.292280
0.286410
0.280550
0.275660
0.272730
0.267840
0.261970
0.255130
0.250240
0.248290
0.251220
0.261970
0.281520
0.310850
0.348970
0.387100
0.427170
0.473120
0.520040
0.564030
0.604110
0.638320
0.666670
0.689150
0.706740
0.718480
0.726300
0.730210
0.730210
0.727270
0.723360
0.717500
0.709680
0.700880
0.690130
0.677420
0.663730
0.648090
0.630500
0.610950
0.593350
0.574780
0.554250
0.531770
0.510260
0.488760
0.469210
0.451610
0.435970
0.422290
0.411530
0.402740
0.395890
0.391980
0.390030
0.387100
0.385140
0.384160
0.382210
0.380250
0.378300
0.376340
0.373410
0.370480
0.366570
0.363640
0.361680
0.357770
0.352880
0.348970
0.344090
0.338220
0.333330
0.328450
0.323560
0.318670
0.314760
0.309870
0.305960
0.303030
0.298140
0.293260
0.289350
0.287390
0.291300
0.302050
0.322580
0.351910
0.391010
0.435970
0.478010
0.517110
0.560120
0.601170
0.638320
0.669600
0.695010
0.714570
0.729230
0.738030
0.743890
0.745850
0.743890
0.739980
0.735090
0.728250
0.719450
0.708700
0.696970
0.683280
0.668620
0.651030
0.632450
0.611930
0.590420
0.570870
0.552300
0.530790
0.509290
0.488760
0.469210
0.450640
0.435000
0.421310
0.409580
0.399800
0.391980
0.386120
0.382210
0.378300
0.374390
0.371460
0.368520
0.365590
0.362660
0.358750
0.354840
0.350930
0.347020
0.342130
0.338220
0.334310
0.330400
0.325510
0.320630
0.314760
0.309870
0.304010
0.299120
0.293260
0.288370
0.283480
0.279570
0.276640
0.271750
0.266860
0.261000
0.256110
0.254150
0.256110
0.264910
0.283480
0.311830
0.348970
0.392960
0.435000
0.476050
0.521020
0.565000
0.605080
0.640270
0.669600
0.692080
0.710650
0.723360
0.732160
0.736070
0.737050
0.735090
0.731180
0.726300
0.719450
0.709680
0.698920
0.687190
0.673510
0.656890
0.639300
0.620720
0.599220
0.580650
0.561090
0.540570
0.519060
0.497560
0.477030
0.458460
0.440860
0.426200
0.413490
0.403710
0.394920
0.389050
0.384160
0.380250
0.377320
0.373410
0.370480
0.367550
0.364610
0.360700
0.357770
0.353860
0.349950
0.346040
0.343110
0.340180
0.336270
0.331380
0.326490
0.321600
0.315740
0.309870
0.304990
0.299120
0.293260
0.288370
0.284460
0.280550
0.276640
0.270770
0.264910
0.260020
0.258060
0.260020
0.268820
0.286410
0.313780
0.349950
0.392960
0.434020
0.474100
0.518080
0.561090
0.601170
0.635390
0.664710
0.687190
0.704790
0.717500
0.726300
0.731180
0.732160
0.730210
0.727270
0.721410
0.714570
0.705770
0.695010
0.683280
0.669600
0.653960
0.637340
0.617790
0.597260
0.578690
0.560120
0.539590
0.518080
0.497560
0.478010
0.460410
0.443790
0.429130
0.417400
0.407620
0.398830
0.392960
0.389050
0.385140
0.381230
0.378300
0.375370
0.372430
0.369500
0.366570
0.362660
0.359730
0.355820
0.351910
0.348000
0.345060
0.341150
0.337240
0.332360
0.327470
0.322580
0.316720
0.311830
0.305960
0.300100
0.295210
0.291300
0.288370
0.283480
0.278590
0.272730
0.268820
0.266860
0.270770
0.281520
0.301080
0.329420
0.367550
0.404690
0.442820
0.486800
0.531770
0.574780
0.612900
0.646140
0.672530
0.694040
0.710650
0.721410
0.729230
0.733140
0.733140
0.731180
0.727270
0.721410
0.713590
0.704790
0.694040
0.681330
0.667640
0.652000
0.633430
0.614860
0.596290
0.577710
0.557180
0.535680
0.513200
0.492670
0.472140
0.454550
0.437930
0.424240
0.412510
0.402740
0.394920
0.389050
0.385140
0.381230
0.378300
0.375370
0.372430
0.369500
0.365590
0.362660
0.358750
0.354840
0.350930
0.347020
0.344090
0.340180
0.335290
0.329420
0.323560
0.317690
0.311830
0.305960
0.300100
0.294230
0.288370
0.283480
0.279570
0.275660
0.271750
0.265880
0.260020
0.256110
0.254150
0.258060
0.269790
0.290320
0.320630
0.358750
0.397850
0.436950
0.481920
0.527860
0.570870
0.609970
0.643210
0.669600
0.691100
0.707720
0.719450
0.726300
0.730210
0.730210
0.727270
0.722390
0.716520
0.708700
0.698920
0.687190
0.674490
0.659820
0.644180
0.625610
0.606060
0.587490
0.569890
0.548390
0.526880
0.505380
0.483870
0.464320
0.446730
0.432060
0.418380
0.408600
0.400780
0.394920
0.391010
0.389050
0.388070
0.387100
0.386120
0.385140
0.384160
0.383190
0.380250
0.378300
0.374390
0.371460
0.367550
0.364610
0.360700
0.356790
0.351910
0.348000
0.343110
0.338220
0.333330
0.329420
0.324540
0.320630
0.315740
0.311830
0.308900
0.304010
0.299120
0.295210
0.295210
0.302050
0.315740
0.340180
0.372430
0.413490
0.458460
0.500490
0.538610
0.578690
0.616810
0.651030
0.679370
0.701860
0.718480
0.731180
0.738030
0.741940
0.742910
0.739980
0.735090
0.729230
0.721410
0.711630
0.700880
0.688170
0.674490
0.658850
0.641250
0.622680
0.602150
0.580650
0.561090
0.542520
0.521990
0.500490
0.480940
0.462370
0.445750
0.431090
0.419350
0.408600
0.399800
0.392960
0.388070
0.384160
0.381230
0.378300
0.375370
0.372430
0.368520
0.365590
0.361680
0.357770
0.352880
0.348000
0.343110
0.339200
0.335290
0.330400
0.325510
0.320630
0.315740
0.309870
0.304990
0.299120
0.294230
0.289350
0.284460
0.279570
0.275660
0.271750
0.266860
0.262950
0.259040
0.259040
0.265880
0.279570
0.303030
0.336270
0.377320
0.424240
0.467250
0.507330
0.550340
0.591400
0.628540
0.659820
0.685240
0.704790
0.719450
0.730210
0.736070
0.739000
0.738030
0.735090
0.730210
0.723360
0.715540
0.705770
0.694040
0.680350
0.664710
0.648090
0.629520
0.608990
0.587490
0.566960
0.548390
0.526880
0.505380
0.484850
0.466280
0.448680
0.433040
0.420330
0.409580
0.400780
0.393940
0.389050
0.385140
0.382210
0.379280
0.376340
0.373410
0.370480
0.367550
0.364610
0.360700
0.356790
0.352880
0.348970
0.345060
0.342130
0.337240
0.333330
0.327470
0.322580
0.316720
0.310850
0.305960
0.300100
0.295210
0.290320
0.286410
0.283480
0.278590
0.272730
0.267840
0.264910
0.265880
0.272730
0.288370
0.312810
0.347020
0.388070
0.435000
0.478010
0.517110
0.558160
0.598240
0.633430
0.662760
0.687190
0.705770
0.719450
0.729230
0.734120
0.736070
0.735090
0.731180
0.725320
0.718480
0.709680
0.698920
0.687190
0.673510
0.658850
0.641250
0.622680
0.603130
0.581620
0.561090
0.542520
0.521990
0.500490
0.480940
0.461390
0.444770
0.430110
0.417400
0.406650
0.398830
0.391980
0.387100
0.384160
0.380250
0.377320
0.374390
0.372430
0.369500
0.366570
0.363640
0.360700
0.356790
0.352880
0.348970
0.345060
0.342130
0.338220
0.333330
0.328450
0.322580
0.317690
0.311830
0.306940
0.301080
0.296190
0.291300
0.287390
0.283480
0.278590
0.272730
0.268820
0.266860
0.269790
0.279570
0.299120
0.327470
0.364610
0.407620
0.455520
0.497560
0.535680
0.574780
0.611930
0.644180
0.670580
0.692080
0.707720
0.719450
0.727270
0.731180
0.732160
0.730210
0.726300
0.720430
0.712610
0.703810
0.693060
0.680350
0.666670
0.650050
0.632450
0.612900
0.591400
0.568910
0.549360
0.529810
0.508310
0.487780
0.467250
0.447700
0.431090
0.415440
0.402740
0.392960
0.384160
0.377320
0.373410
0.370480
0.368520
0.365590
0.363640
0.361680
0.359730
0.357770
0.355820
0.352880
0.349950
0.346040
0.342130
0.339200
0.336270
0.332360
0.327470
0.322580
0.317690
0.312810
0.307920
0.304010
0.299120
0.295210
0.290320
0.286410
0.283480
0.278590
0.274680
0.272730
0.275660
0.285430
0.304010
0.332360
0.369500
0.414470
0.462370
0.512220
0.553270
0.589440
0.625610
0.658850
0.686220
0.707720
0.723360
0.735090
0.741940
0.744870
0.744870
0.741940
0.736070
0.728250
0.719450
0.708700
0.695990
0.681330
0.665690
0.647120
0.627570
0.607040
0.585530
0.563050
0.542520
0.523950
0.504400
0.485830
0.468230
0.451610
0.437930
0.426200
0.416420
0.408600
0.401760
0.395890
0.391980
0.388070
0.386120
0.383190
0.379280
0.376340
0.372430
0.367550
0.363640
0.358750
0.353860
0.348970
0.344090
0.339200
0.336270
0.331380
0.326490
0.320630
0.315740
0.309870
0.304990
0.300100
0.294230
0.289350
0.284460
0.278590
0.274680
0.270770
0.265880
0.262950
0.261970
0.267840
0.281520
0.304990
0.338220
0.380250
0.427170
0.478010
0.521990
0.560120
0.600200
0.636360
0.667640
0.694040
0.713590
0.729230
0.739980
0.745850
0.748780
0.747800
0.744870
0.739980
0.733140
0.724340
0.713590
0.701860
0.689150
0.673510
0.656890
0.638320
0.617790
0.596290
0.572830
0.552300
0.533720
0.513200
0.492670
0.473120
0.455520
0.439880
0.425220
0.413490
0.403710
0.395890
0.390030
0.384160
0.381230
0.378300
0.375370
0.372430
0.368520
0.365590
0.361680
0.357770
0.353860
0.349950
0.345060
0.341150
0.337240
0.334310
0.329420
0.324540
0.318670
0.313780
0.307920
0.302050
0.297170
0.291300
0.286410
0.281520
0.275660
0.270770
0.266860
0.261970
0.259040
0.260020
0.266860
0.282500
0.306940
0.341150
0.384160
0.432060
0.481920
0.524930
0.562070
0.600200
0.635390
0.664710
0.690130
0.708700
0.723360
0.733140
0.739000
0.740960
0.740960
0.738030
0.733140
0.726300
0.717500
0.706740
0.695010
0.681330
0.665690
0.649070
0.629520
0.608990
0.587490
0.565000
0.544480
0.525900
0.505380
0.485830
0.467250
0.449660
0.434020
0.421310
0.409580
0.399800
0.392960
0.386120
0.381230
0.378300
0.375370
0.372430
0.369500
0.366570
0.363640
0.359730
0.355820
0.351910
0.348000
0.343110
0.338220
0.334310
0.331380
0.326490
0.321600
0.316720
0.310850
0.304990
0.300100
0.294230
0.289350
0.283480
0.278590
0.272730
0.267840
0.264910
0.261000
0.260020
0.262950
0.272730
0.291300
0.320630
0.357770
0.401760
0.450640
0.499510
0.541540
0.577710
0.613880
0.646140
0.673510
0.695990
0.712610
0.724340
0.732160
0.737050
0.738030
0.736070
0.731180
0.725320
0.717500
0.707720
0.696970
0.685240
0.670580
0.654940
0.637340
0.617790
0.596290
0.574780
0.552300
0.532750
0.514170
0.494620
0.475070
0.457480
0.441840
0.427170
0.415440
0.404690
0.394920
0.387100
0.380250
0.376340
0.373410
0.370480
0.367550
0.364610
0.361680
0.358750
0.354840
0.350930
0.347020
0.342130
0.338220
0.333330
0.329420
0.325510
0.320630
0.315740
0.309870
0.304990
0.299120
0.293260
0.288370
0.282500
0.276640
0.271750
0.266860
0.262950
0.258060
0.254150
0.253180
0.258060
0.269790
0.291300
0.322580
0.361680
0.407620
0.456500
0.505380
0.547410
0.582600
0.616810
0.648090
0.674490
0.695010
0.710650
0.721410
0.728250
0.732160
0.732160
0.729230
0.724340
0.717500
0.709680
0.699900
0.688170
0.675460
0.660800
0.644180
0.625610
0.606060
0.584560
0.561090
0.538610
0.517110
0.498530
0.478010
0.458460
0.439880
0.423260
0.408600
0.395890
0.386120
0.377320
0.371460
0.366570
0.363640
0.361680
0.358750
0.356790
0.354840
0.351910
0.348970
0.346040
0.343110
0.339200
0.335290
0.330400
0.325510
0.322580
0.318670
0.314760
0.309870
0.304990
0.299120
0.294230
0.290320
0.285430
0.281520
0.276640
0.271750
0.267840
0.263930
0.261000
0.259040
0.261000
0.268820
0.286410
0.313780
0.349950
0.393940
0.442820
0.492670
0.541540
0.581620
0.613880
0.646140
0.673510
0.695990
0.713590
0.725320
0.734120
0.738030
0.738030
0.736070
0.731180
0.724340
0.716520
0.706740
0.695010
0.682310
0.667640
0.651030
0.632450
0.611930
0.591400
0.568910
0.546430
0.523950
0.504400
0.487780
0.471160
0.454550
0.439880
0.427170
0.416420
0.407620
0.399800
0.393940
0.389050
0.384160
0.381230
0.379280
0.376340
0.373410
0.369500
0.365590
0.361680
0.357770
0.352880
0.347020
0.342130
0.336270
0.330400
0.326490
0.322580
0.317690
0.312810
0.307920
0.302050
0.297170
0.292280
0.287390
0.281520
0.276640
0.270770
0.265880
0.261970
0.258060
0.256110
0.259040
0.269790
0.289350
0.318670
0.356790
0.401760
0.451610
0.502440
0.550340
0.589440
0.620720
0.651030
0.677420
0.697950
0.714570
0.727270
0.735090
0.739000
0.739980
0.738030
0.734120
0.727270
0.719450
0.709680
0.698920
0.686220
0.671550
0.654940
0.637340
0.616810
0.596290
0.573800
0.550340
0.529810
0.511240
0.491690
0.471160
0.453570
0.436950
0.422290
0.409580
0.398830
0.391010
0.384160
0.378300
0.374390
0.371460
0.368520
0.366570
0.363640
0.360700
0.357770
0.353860
0.349950
0.346040
0.342130
0.337240
0.332360
0.328450
0.325510
0.320630
0.315740
0.310850
0.304990
0.299120
0.294230
0.288370
0.283480
0.277610
0.272730
0.266860
0.262950
0.259040
0.254150
0.252200
0.255130
0.264910
0.282500
0.310850
0.348000
0.391980
0.441840
0.491690
0.535680
0.572830
0.609970
0.644180
0.673510
0.696970
0.715540
0.729230
0.738030
0.742910
0.743890
0.742910
0.738030
0.732160
0.724340
0.714570
0.703810
0.691100
0.676440
0.659820
0.642230
0.622680
0.601170
0.578690
0.555230
0.534700
0.516130
0.495600
0.475070
0.456500
0.439880
0.425220
0.412510
0.401760
0.392960
0.387100
0.381230
0.377320
0.374390
0.372430
0.369500
0.367550
0.364610
0.360700
0.357770
0.353860
0.349950
0.345060
0.341150
0.336270
0.332360
0.328450
0.324540
0.319650
0.313780
0.308900
0.303030
0.297170
0.292280
0.286410
0.281520
0.275660
0.269790
0.265880
0.261970
0.258060
0.256110
0.258060
0.266860
0.285430
0.312810
0.349950
0.393940
0.442820
0.493650
0.535680
0.572830
0.609970
0.644180
0.673510
0.696970
0.714570
0.728250
0.738030
0.742910
0.745850
0.744870
0.740960
0.735090
0.728250
0.719450
0.708700
0.695990
0.681330
0.664710
0.646140
0.626590
0.605080
0.582600
0.559140
0.537630
0.519060
0.498530
0.478010
0.459430
0.441840
0.427170
0.414470
0.403710
0.394920
0.388070
0.382210
0.378300
0.375370
0.373410
0.370480
0.368520
0.365590
0.362660
0.359730
0.355820
0.351910
0.348000
0.344090
0.339200
0.335290
0.332360
0.327470
0.322580
0.316720
0.310850
0.304990
0.299120
0.294230
0.288370
0.283480
0.277610
0.271750
0.266860
0.263930
0.260020
0.258060
0.261000
0.270770
0.289350
0.317690
0.354840
0.399800
0.448680
0.498530
0.540570
0.577710
0.613880
0.648090
0.676440
0.698920
0.716520
0.729230
0.738030
0.742910
0.743890
0.741940
0.738030
0.731180
0.723360
0.714570
0.703810
0.691100
0.676440
0.660800
0.643210
0.623660
0.602150
0.579670
0.557180
0.536660
0.517110
0.497560
0.478010
0.459430
0.442820
0.427170
0.414470
0.403710
0.393940
0.386120
0.379280
0.375370
0.371460
0.368520
0.364610
0.361680
0.358750
0.354840
0.350930
0.347020
0.343110
0.339200
0.334310
0.329420
0.325510
0.321600
0.317690
0.311830
0.305960
0.300100
0.294230
0.288370
0.282500
0.276640
0.271750
0.265880
0.261970
0.258060
0.253180
0.248290
0.246330
0.248290
0.258060
0.276640
0.304990
0.342130
0.388070
0.436950
0.487780
0.531770
0.567940
0.605080
0.639300
0.668620
0.692080
0.709680
0.723360
0.732160
0.737050
0.739000
0.738030
0.734120
0.727270
0.720430
0.710650
0.699900
0.687190
0.672530
0.655910
0.638320
0.617790
0.596290
0.574780
0.552300
0.531770
0.513200
0.493650
0.475070
0.456500
0.440860
0.427170
0.416420
0.407620
0.401760
0.396870
0.393940
0.392960
0.391980
0.391010
0.390030
0.389050
0.388070
0.386120
0.383190
0.380250
0.377320
0.373410
0.369500
0.364610
0.360700
0.357770
0.353860
0.348970
0.344090
0.339200
0.334310
0.329420
0.324540
0.318670
0.313780
0.306940
0.302050
0.298140
0.293260
0.291300
0.294230
0.304010
0.322580
0.351910
0.389050
0.434020
0.481920
0.531770
0.578690
0.615840
0.646140
0.674490
0.698920
0.718480
0.734120
0.743890
0.750730
0.752690
0.752690
0.749760
0.743890
0.737050
0.728250
0.718480
0.706740
0.693060
0.678400
0.661780
0.644180
0.623660
0.602150
0.579670
0.557180
0.533720
0.514170
0.496580
0.478010
0.460410
0.443790
0.429130
0.416420
0.406650
0.397850
0.391010
0.385140
0.380250
0.377320
0.375370
0.372430
0.369500
0.366570
0.363640
0.359730
0.355820
0.351910
0.347020
0.342130
0.337240
0.332360
0.327470
0.324540
0.319650
0.314760
0.309870
0.304010
0.299120
0.293260
0.288370
0.283480
0.278590
0.272730
0.268820
0.265880
0.261970
0.259040
0.261000
0.269790
0.286410
0.312810
0.348970
0.391980
0.440860
0.491690
0.540570
0.581620
0.614860
0.647120
0.675460
0.698920
0.717500
0.731180
0.739980
0.745850
0.747800
0.747800
0.743890
0.739000
0.731180
0.722390
0.712610
0.699900
0.686220
0.670580
0.652980
0.633430
0.612900
0.590420
0.567940
0.547410
0.528840
0.508310
0.487780
0.469210
0.452590
0.436950
0.424240
0.413490
0.404690
0.396870
0.391010
0.386120
0.383190
0.380250
0.377320
0.374390
0.371460
0.367550
0.364610
0.360700
0.355820
0.351910
0.347020
0.342130
0.339200
0.335290
0.331380
0.325510
0.320630
0.315740
0.309870
0.304010
0.299120
0.293260
0.288370
0.283480
0.277610
0.272730
0.269790
0.265880
0.262950
0.264910
0.271750
0.288370
0.313780
0.348000
0.391010
0.437930
0.487780
0.530790
0.568910
0.607040
0.642230
0.672530
0.696970
0.716520
0.730210
0.739980
0.745850
0.747800
0.746820
0.743890
0.738030
0.730210
0.721410
0.710650
0.698920
0.684260
0.668620
0.651030
0.631480
0.610950
0.588470
0.565980
0.545450
0.525900
0.505380
0.484850
0.466280
0.448680
0.434020
0.420330
0.409580
0.401760
0.394920
0.389050
0.385140
0.382210
0.380250
0.378300
0.376340
0.373410
0.370480
0.367550
0.363640
0.359730
0.355820
0.350930
0.347020
0.343110
0.339200
0.335290
0.329420
0.322580
0.314760
0.307920
0.301080
0.295210
0.290320
0.284460
0.279570
0.273700
0.268820
0.265880
0.261970
0.260020
0.261970
0.270770
0.287390
0.314760
0.349950
0.393940
0.441840
0.490710
0.533720
0.569890
0.607040
0.641250
0.670580
0.694040
0.712610
0.725320
0.734120
0.739000
0.739980
0.739000
0.735090
0.729230
0.722390
0.712610
0.702830
0.690130
0.676440
0.659820
0.642230
0.622680
0.601170
0.579670
0.556210
0.535680
0.516130
0.495600
0.475070
0.455520
0.438910
0.423260
0.409580
0.398830
0.390030
0.383190
0.377320
0.372430
0.369500
0.367550
0.364610
0.362660
0.359730
0.356790
0.353860
0.349950
0.346040
0.342130
0.337240
0.332360
0.328450
0.324540
0.319650
0.314760
0.308900
0.303030
0.297170
0.292280
0.286410
0.281520
0.276640
0.270770
0.264910
0.261000
0.257090
0.253180
0.250240
0.251220
0.259040
0.275660
0.302050
0.338220
0.382210
0.431090
0.481920
0.525900
0.563050
0.602150
0.636360
0.666670
0.691100
0.709680
0.723360
0.733140
0.738030
0.739980
0.739000
0.735090
0.728250
0.721410
0.711630
0.700880
0.688170
0.673510
0.656890
0.639300
0.618770
0.597260
0.574780
0.552300
0.532750
0.514170
0.495600
0.478010
0.461390
0.445750
0.433040
0.423260
0.414470
0.407620
0.402740
0.398830
0.395890
0.394920
0.392960
0.391010
0.389050
0.386120
0.383190
0.380250
0.376340
0.371460
0.367550
0.362660
0.357770
0.353860
0.349950
0.345060
0.340180
0.335290
0.329420
0.324540
0.318670
0.312810
0.307920
0.302050
0.296190
0.291300
0.286410
0.281520
0.278590
0.278590
0.285430
0.301080
0.326490
0.360700
0.403710
0.451610
0.501470
0.550340
0.590420
0.622680
0.653960
0.682310
0.704790
0.723360
0.736070
0.744870
0.748780
0.750730
0.748780
0.743890
0.738030
0.729230
0.719450
0.708700
0.695990
0.681330
0.664710
0.647120
0.627570
0.606060
0.583580
0.560120
0.536660
0.516130
0.497560
0.478010
0.459430
0.441840
0.426200
0.412510
0.401760
0.392960
0.385140
0.380250
0.375370
0.372430
0.370480
0.368520
0.366570
0.363640
0.360700
0.356790
0.353860
0.348970
0.345060
0.340180
0.335290
0.330400
0.326490
0.322580
0.317690
0.312810
0.306940
0.302050
0.296190
0.291300
0.285430
0.280550
0.275660
0.269790
0.265880
0.261970
0.257090
0.253180
0.253180
0.258060
0.270770
0.293260
0.325510
0.365590
0.412510
0.462370
0.512220
0.554250
0.589440
0.624630
0.654940
0.681330
0.701860
0.718480
0.729230
0.736070
0.739000
0.738030
0.734120
0.728250
0.721410
0.712610
0.702830
0.692080
0.679370
0.664710
0.648090
0.630500
0.609970
0.589440
0.566960
0.544480
0.523950
0.506350
0.486800
0.467250
0.449660
0.434020
0.420330
0.409580
0.399800
0.391980
0.386120
0.381230
0.378300
0.375370
0.373410
0.370480
0.368520
0.365590
0.362660
0.358750
0.354840
0.350930
0.347020
0.342130
0.337240
0.333330
0.330400
0.326490
0.321600
0.315740
0.309870
0.304990
0.299120
0.294230
0.288370
0.283480
0.277610
0.273700
0.269790
0.264910
0.261970
0.261000
0.265880
0.278590
0.301080
0.332360
0.371460
0.417400
0.466280
0.515150
0.555230
0.589440
0.623660
0.653960
0.679370
0.699900
0.716520
0.727270
0.735090
0.738030
0.739000
0.737050
0.733140
0.726300
0.718480
0.708700
0.696970
0.684260
0.669600
0.652980
0.634410
0.613880
0.593350
0.570870
0.550340
0.531770
0.511240
0.491690
0.472140
0.454550
0.439880
0.426200
0.414470
0.404690
0.396870
0.390030
0.385140
0.381230
0.379280
0.376340
0.373410
0.370480
0.366570
0.363640
0.359730
0.355820
0.351910
0.347020
0.343110
0.339200
0.336270
0.332360
0.327470
0.322580
0.316720
0.310850
0.304990
0.300100
0.294230
0.289350
0.284460
0.278590
0.274680
0.270770
0.265880
0.262950
0.262950
0.268820
0.282500
0.305960
0.337240
0.377320
0.423260
0.472140
0.515150
0.553270
0.591400
0.627570
0.658850
0.684260
0.704790
0.719450
0.730210
0.736070
0.739000
0.739000
0.737050
0.732160
0.725320
0.716520
0.706740
0.695010
0.681330
0.666670
0.650050
0.630500
0.610950
0.588470
0.565980
0.545450
0.525900
0.504400
0.483870
0.463340
0.444770
0.429130
0.414470
0.402740
0.392960
0.385140
0.379280
0.374390
0.370480
0.368520
0.365590
0.363640
0.360700
0.357770
0.354840
0.350930
0.348000
0.344090
0.339200
0.334310
0.330400
0.327470
0.322580
0.317690
0.312810
0.306940
0.301080
0.295210
0.289350
0.284460
0.278590
0.273700
0.267840
0.263930
0.260020
0.256110
0.252200
0.252200
0.258060
0.271750
0.296190
0.329420
0.370480
0.418380
0.468230
0.512220
0.550340
0.590420
0.626590
0.657870
0.683280
0.702830
0.718480
0.728250
0.735090
0.738030
0.737050
0.734120
0.729230
0.722390
0.713590
0.703810
0.692080
0.678400
0.663730
0.646140
0.627570
0.607040
0.586510
0.564030
0.544480
0.526880
0.507330
0.488760
0.472140
0.456500
0.442820
0.431090
0.422290
0.414470
0.408600
0.403710
0.399800
0.396870
0.394920
0.392960
0.390030
0.388070
0.385140
0.382210
0.378300
0.374390
0.369500
0.364610
0.359730
0.354840
0.351910
0.347020
0.342130
0.336270
0.331380
0.325510
0.319650
0.314760
0.308900
0.304010
0.298140
0.292280
0.287390
0.283480
0.280550
0.279570
0.285430
0.299120
0.321600
0.354840
0.395890
0.442820
0.492670
0.541540
0.582600
0.616810
0.650050
0.679370
0.703810
0.723360
0.738030
0.747800
0.753670
0.755620
0.754640
0.751710
0.745850
0.739000
0.729230
0.719450
0.706740
0.693060
0.677420
0.659820
0.640270
0.619750
0.598240
0.574780
0.551320
0.530790
0.511240
0.491690
0.472140
0.453570
0.437930
0.423260
0.411530
0.401760
0.393940
0.387100
0.382210
0.379280
0.376340
0.374390
0.371460
0.367550
0.364610
0.360700
0.356790
0.352880
0.348970
0.344090
0.339200
0.334310
0.330400
0.327470
0.322580
0.317690
0.311830
0.305960
0.301080
0.295210
0.290320
0.285430
0.279570
0.274680
0.270770
0.266860
0.261970
0.258060
0.258060
0.261970
0.274680
0.296190
0.327470
0.367550
0.414470
0.465300
0.516130
0.558160
0.594330
0.629520
0.661780
0.688170
0.709680
0.725320
0.737050
0.744870
0.747800
0.747800
0.745850
0.740960
0.734120
0.726300
0.716520
0.704790
0.692080
0.676440
0.659820
0.641250
0.620720
0.598240
0.575760
0.552300
0.531770
0.513200
0.493650
0.474100
0.456500
0.439880
0.426200
0.414470
0.405670
0.397850
0.391010
0.386120
0.383190
0.380250
0.378300
0.375370
0.372430
0.369500
0.366570
0.362660
0.358750
0.354840
0.349950
0.346040
0.341150
0.337240
0.333330
0.329420
0.323560
0.318670
0.312810
0.306940
0.301080
0.296190
0.290320
0.285430
0.279570
0.274680
0.270770
0.266860
0.262950
0.262950
0.268820
0.282500
0.304990
0.338220
0.379280
0.426200
0.477030
0.526880
0.568910
0.603130
0.638320
0.668620
0.695010
0.715540
0.730210
0.741940
0.747800
0.750730
0.750730
0.747800
0.741940
0.735090
0.725320
0.715540
0.702830
0.689150
0.673510
0.656890
0.638320
0.617790
0.595310
0.572830
0.550340
0.529810
0.511240
0.491690
0.473120
0.455520
0.439880
0.426200
0.414470
0.405670
0.397850
0.391010
0.386120
0.383190
0.381230
0.378300
0.375370
0.373410
0.369500
0.366570
0.362660
0.358750
0.354840
0.349950
0.345060
0.340180
0.336270
0.333330
0.328450
0.323560
0.317690
0.311830
0.306940
0.301080
0.296190
0.290320
0.285430
0.279570
0.274680
0.270770
0.266860
0.263930
0.263930
0.270770
0.286410
0.310850
0.346040
0.388070
0.435970
0.484850
0.530790
0.570870
0.604110
0.636360
0.665690
0.690130
0.709680
0.723360
0.734120
0.739980
0.741940
0.741940
0.738030
0.733140
0.725320
0.716520
0.706740
0.694040
0.680350
0.664710
0.648090
0.628540
0.608020
0.586510
0.563050
0.540570
0.521020
0.502440
0.483870
0.465300
0.448680
0.434020
0.421310
0.410560
0.400780
0.393940
0.387100
0.382210
0.378300
0.376340
0.373410
0.370480
0.367550
0.364610
0.360700
0.357770
0.353860
0.349950
0.345060
0.341150
0.337240
0.333330
0.329420
0.324540
0.319650
0.313780
0.307920
0.302050
0.297170
0.291300
0.285430
0.280550
0.274680
0.269790
0.265880
0.261970
0.259040
0.260020
0.268820
0.284460
0.310850
0.346040
0.389050
0.436950
0.486800
0.529810
0.566960
0.605080
0.640270
0.669600
0.694040
0.712610
0.726300
0.736070
0.740960
0.742910
0.741940
0.738030
0.732160
0.724340
0.715540
0.704790
0.692080
0.678400
0.661780
0.644180
0.623660
0.602150
0.579670
0.556210
0.534700
0.515150
0.493650
0.473120
0.453570
0.435970
0.420330
0.406650
0.395890
0.386120
0.379280
0.373410
0.368520
0.365590
0.363640
0.360700
0.358750
0.355820
0.352880
0.349950
0.346040
0.342130
0.338220
0.333330
0.328450
0.324540
0.321600
0.316720
0.311830
0.305960
0.300100
0.294230
0.288370
0.283480
0.277610
0.272730
0.266860
0.261970
0.257090
0.253180
0.249270
0.247310
0.249270
0.258060
0.276640
0.304990
0.342130
0.387100
0.436950
0.487780
0.531770
0.568910
0.606060
0.639300
0.667640
0.691100
0.707720
0.720430
0.729230
0.734120
0.735090
0.734120
0.730210
0.724340
0.716520
0.707720
0.696970
0.684260
0.669600
0.652980
0.635390
0.615840
0.594330
0.572830
0.550340
0.529810
0.512220
0.492670
0.474100
0.457480
0.442820
0.430110
0.419350
0.410560
0.404690
0.398830
0.394920
0.391980
0.390030
0.389050
0.387100
0.385140
0.382210
0.379280
0.375370
0.371460
0.367550
0.362660
0.357770
0.351910
0.348000
0.344090
0.340180
0.334310
0.329420
0.323560
0.317690
0.312810
0.306940
0.302050
0.296190
0.290320
0.283480
0.278590
0.275660
0.272730
0.274680
0.283480
0.300100
0.327470
0.364610
0.409580
0.458460
0.508310
0.557180
0.596290
0.627570
0.657870
0.684260
0.705770
0.722390
0.735090
0.742910
0.746820
0.747800
0.745850
0.741940
0.735090
0.726300
0.716520
0.705770
0.693060
0.678400
0.662760
0.644180
0.624630
0.604110
0.581620
0.558160
0.534700
0.514170
0.495600
0.477030
0.458460
0.440860
0.426200
0.414470
0.404690
0.395890
0.389050
0.383190
0.378300
0.375370
0.372430
0.370480
0.367550
0.363640
0.360700
0.356790
0.352880
0.348000
0.344090
0.339200
0.334310
0.329420
0.325510
0.321600
0.316720
0.311830
0.306940
0.301080
0.295210
0.290320
0.284460
0.279570
0.274680
0.268820
0.264910
0.261000
0.256110
0.253180
0.254150
0.260020
0.274680
0.299120
0.333330
0.375370
0.422290
0.473120
0.521990
0.563050
0.597260
0.630500
0.660800
0.685240
0.704790
0.719450
0.729230
0.735090
0.738030
0.737050
0.734120
0.728250
0.721410
0.712610
0.702830
0.691100
0.678400
0.662760
0.646140
0.628540
0.608020
0.586510
0.564030
0.541540
0.521020
0.502440
0.482890
0.464320
0.446730
0.431090
0.417400
0.405670
0.396870
0.389050
0.383190
0.378300
0.375370
0.373410
0.370480
0.367550
0.365590
0.362660
0.359730
0.355820
0.351910
0.348000
0.343110
0.339200
0.334310
0.330400
0.327470
0.322580
0.317690
0.311830
0.306940
0.301080
0.295210
0.290320
0.284460
0.279570
0.273700
0.269790
0.265880
0.261970
0.258060
0.258060
0.263930
0.277610
0.300100
0.333330
0.373410
0.420330
0.469210
0.518080
0.558160
0.592380
0.625610
0.655910
0.680350
0.700880
0.715540
0.726300
0.732160
0.735090
0.735090
0.732160
0.727270
0.720430
0.712610
0.702830
0.691100
0.678400
0.663730
0.648090
0.629520
0.609970
0.588470
0.565980
0.543500
0.523950
0.505380
0.486800
0.468230
0.450640
0.435000
0.422290
0.410560
0.400780
0.392960
0.386120
0.381230
0.377320
0.375370
0.372430
0.369500
0.366570
0.362660
0.358750
0.354840
0.350930
0.346040
0.341150
0.335290
0.330400
0.325510
0.321600
0.316720
0.310850
0.304990
0.299120
0.293260
0.287390
0.281520
0.275660
0.270770
0.264910
0.260020
0.257090
0.252200
0.248290
0.248290
0.253180
0.266860
0.289350
0.321600
0.361680
0.408600
0.458460
0.507330
0.549360
0.583580
0.616810
0.647120
0.672530
0.692080
0.707720
0.718480
0.725320
0.728250
0.728250
0.726300
0.721410
0.714570
0.706740
0.696970
0.685240
0.672530
0.657870
0.641250
0.623660
0.603130
0.582600
0.560120
0.537630
0.517110
0.499510
0.479960
0.461390
0.444770
0.430110
0.417400
0.406650
0.398830
0.392960
0.388070
0.385140
0.383190
0.382210
0.381230
0.379280
0.378300
0.376340
0.374390
0.371460
0.368520
0.364610
0.360700
0.356790
0.353860
0.350930
0.347020
0.342130
0.337240
0.332360
0.327470
0.322580
0.317690
0.312810
0.307920
0.303030
0.299120
0.296190
0.293260
0.291300
0.291300
0.297170
0.310850
0.333330
0.365590
0.406650
0.452590
0.500490
0.549360
0.588470
0.621700
0.652980
0.681330
0.703810
0.721410
0.735090
0.742910
0.747800
0.748780
0.747800
0.742910
0.737050
0.729230
0.720430
0.710650
0.698920
0.685240
0.669600
0.652980
0.633430
0.612900
0.591400
0.568910
0.545450
0.524930
0.507330
0.487780
0.469210
0.452590
0.436950
0.424240
0.412510
0.403710
0.395890
0.390030
0.385140
0.381230
0.378300
0.375370
0.373410
0.370480
0.366570
0.362660
0.358750
0.353860
0.348970
0.344090
0.339200
0.333330
0.329420
0.326490
0.322580
0.317690
0.311830
0.306940
0.301080
0.296190
0.291300
0.285430
0.280550
0.275660
0.269790
0.264910
0.261970
0.259040
0.258060
0.261970
0.272730
0.292280
0.322580
0.360700
0.406650
0.455520
0.505380
0.547410
0.583580
0.619750
0.652000
0.679370
0.700880
0.718480
0.730210
0.739000
0.742910
0.743890
0.742910
0.739000
0.733140
0.725320
0.716520
0.705770
0.693060
0.679370
0.663730
0.645160
0.625610
0.605080
0.582600
0.560120
0.539590
0.520040
0.500490
0.480940
0.462370
0.445750
0.432060
0.419350
0.409580
0.400780
0.394920
0.389050
0.385140
0.382210
0.380250
0.377320
0.374390
0.371460
0.368520
0.365590
0.361680
0.357770
0.352880
0.348000
0.343110
0.339200
0.336270
0.331380
0.326490
0.321600
0.315740
0.309870
0.304010
0.299120
0.293260
0.288370
0.282500
0.276640
0.272730
0.268820
0.264910
0.262950
0.265880
0.275660
0.294230
0.322580
0.359730
0.403710
0.451610
0.501470
0.543500
0.579670
0.615840
0.648090
0.676440
0.698920
0.716520
0.729230
0.738030
0.742910
0.743890
0.742910
0.739000
0.733140
0.726300
0.716520
0.705770
0.694040
0.680350
0.664710
0.647120
0.628540
0.608020
0.585530
0.564030
0.543500
0.524930
0.505380
0.486800
0.468230
0.451610
0.436950
0.424240
0.413490
0.404690
0.397850
0.391980
0.387100
0.384160
0.382210
0.379280
0.376340
0.374390
0.371460
0.367550
0.364610
0.360700
0.355820
0.351910
0.347020
0.343110
0.340180
0.335290
0.330400
0.325510
0.319650
0.313780
0.307920
0.303030
0.297170
0.292280
0.286410
0.282500
0.278590
0.273700
0.269790
0.267840
0.270770
0.281520
0.300100
0.328450
0.366570
0.410560
0.458460
0.507330
0.549360
0.584560
0.620720
0.652980
0.680350
0.702830
0.719450
0.732160
0.740960
0.745850
0.746820
0.745850
0.740960
0.735090
0.727270
0.717500
0.706740
0.694040
0.678400
0.660800
0.642230
0.621700
0.600200
0.577710
0.554250
0.534700
0.515150
0.495600
0.476050
0.458460
0.442820
0.428150
0.416420
0.406650
0.398830
0.391980
0.387100
0.383190
0.381230
0.378300
0.375370
0.371460
0.368520
0.364610
0.360700
0.355820
0.350930
0.345060
0.340180
0.334310
0.329420
0.325510
0.320630
0.314760
0.307920
0.302050
0.295210
0.289350
0.282500
0.276640
0.270770
0.264910
0.260020
0.256110
0.251220
0.246330
0.243400
0.244380
0.253180
0.269790
0.296190
0.333330
0.377320
0.426200
0.476050
0.520040
0.557180
0.595310
0.644180
0.670580
0.692080
0.715540
0.725320
0.730210
0.732160
0.731180
0.728250
0.722390
0.714570
0.705770
0.695010
0.683280
0.669600
0.653960
0.636360
0.616810
0.596290
0.573800
0.551320
0.530790
0.512220
0.491690
0.472140
0.453570
0.437930
0.423260
0.412510
0.402740
0.395890
0.391010
0.388070
0.386120
0.385140
0.384160
0.383190
0.382210
0.381230
0.379280
0.377320
0.374390
0.371460
0.367550
0.363640
0.359730
0.355820
0.352880
0.348000
0.344090
0.339200
0.334310
0.329420
0.324540
0.320630
0.315740
0.310850
0.304990
0.300100
0.296190
0.292280
0.290320
0.292280
0.301080
0.319650
0.347020
0.384160
0.428150
0.475070
0.523950
0.569890
0.607040
0.637340
0.665690
0.690130
0.717500
0.730210
0.738030
0.743890
0.743890
0.740960
0.735090
0.728250
0.719450
0.709680
0.697950
0.677420
0.661780
0.645160
0.615840
0.595310
0.572830
0.550340
0.526880
0.507330
0.489740
0.471160
0.454550
0.437930
0.424240
0.412510
0.402740
0.394920
0.388070
0.383190
0.378300
0.375370
0.372430
0.370480
0.367550
0.363640
0.360700
0.356790
0.351910
0.348000
0.343110
0.337240
0.332360
0.328450
0.324540
0.319650
0.313780
0.308900
0.303030
0.297170
0.292280
0.287390
0.281520
0.276640
0.271750
0.266860
0.261970
0.259040
0.254150
0.251220
0.252200
0.259040
0.274680
0.299120
0.333330
0.376340
0.424240
0.475070
0.518080
0.556210
0.595310
0.630500
0.661780
0.686220
0.713590
0.725320
0.733140
0.739000
0.739000
0.736070
0.731180
0.724340
0.716520
0.706740
0.695010
0.682310
0.667640
0.651030
0.632450
0.611930
0.590420
0.566960
0.546430
0.527860
0.506350
0.485830
0.466280
0.448680
0.433040
0.419350
0.407620
0.397850
0.391010
0.385140
0.380250
0.376340
0.374390
0.371460
0.369500
0.366570
0.363640
0.360700
0.356790
0.352880
0.348970
0.344090
0.339200
0.337240
0.337240
0.335290
0.331380
0.326490
0.321600
0.315740
0.310850
0.304990
0.300100
0.294230
0.289350
0.284460
0.279570
0.276640
0.271750
0.267840
0.266860
0.271750
0.284460
0.306940
0.338220
0.378300
0.423260
0.472140
0.515150
0.552300
0.591400
0.627570
0.658850
0.684260
0.704790
0.720430
0.731180
0.737050
0.740960
0.740960
0.738030
0.733140
0.726300
0.718480
0.708700
0.696970
0.684260
0.670580
0.653960
0.636360
0.616810
0.596290
0.574780
0.555230
0.536660
0.517110
0.497560
0.478010
0.461390
0.445750
0.432060
0.420330
0.411530
0.403710
0.396870
0.391010
0.388070
0.385140
0.382210
0.379280
0.376340
0.373410
0.369500
0.365590
0.361680
0.357770
0.353860
0.348970
0.346040
0.342130
0.338220
0.333330
0.328450
0.323560
0.317690
0.312810
0.307920
0.302050
0.297170
0.292280
0.286410
0.281520
0.278590
0.273700
0.269790
0.268820
0.273700
0.286410
0.308900
0.340180
0.379280
0.425220
0.473120
0.515150
0.552300
0.591400
0.626590
0.661780
0.690130
0.706740
0.720430
0.730210
0.736070
0.739980
0.739980
0.737050
0.733140
0.726300
0.718480
0.708700
0.696970
0.684260
0.669600
0.652980
0.635390
0.615840
0.595310
0.573800
0.555230
0.536660
0.517110
0.498530
0.479960
0.463340
0.447700
0.435000
0.423260
0.414470
0.406650
0.399800
0.393940
0.391010
0.388070
0.385140
0.382210
0.378300
0.375370
0.372430
0.368520
0.364610
0.360700
0.355820
0.350930
0.348000
0.344090
0.340180
0.335290
0.329420
0.323560
0.317690
0.311830
0.305960
0.300100
0.294230
0.289350
0.284460
0.280550
0.275660
0.269790
0.264910
0.263930
0.266860
0.278590
0.299120
0.328450
0.367550
0.412510
0.460410
0.503420
0.540570
0.579670
0.616810
0.648090
0.674490
0.695010
0.710650
0.721410
0.728250
0.731180
0.731180
0.728250
0.723360
0.717500
0.709680
0.699900
0.689150
0.677420
0.663730
0.648090
0.630500
0.610950
0.589440
0.567940
0.547410
0.528840
0.508310
0.486800
0.467250
0.448680
0.432060
0.417400
0.405670
0.396870
0.389050
0.383190
0.379280
0.377320
0.375370
0.374390
0.372430
0.371460
0.369500
0.367550
0.365590
0.362660
0.359730
0.355820
0.351910
0.348970
0.346040
0.342130
0.337240
0.333330
0.328450
0.324540
0.318670
0.313780
0.310850
0.306940
0.302050
0.299120
0.296190
0.291300
0.287390
0.286410
0.289350
0.300100
0.318670
0.348000
0.385140
0.429130
0.476050
0.523950
0.565000
0.599220
0.632450
0.662760
0.687190
0.706740
0.723360
0.735090
0.740960
0.743890
0.742910
0.739000
0.733140
0.725320
0.715540
0.704790
0.692080
0.677420
0.661780
0.644180
0.624630
0.604110
0.582600
0.560120
0.537630
0.518080
0.500490
0.482890
0.465300
0.449660
0.435970
0.423260
0.413490
0.405670
0.398830
0.392960
0.389050
0.385140
0.383190
0.380250
0.377320
0.373410
0.370480
0.366570
0.361680
0.356790
0.351910
0.347020
0.342130
0.336270
0.332360
0.328450
0.323560
0.318670
0.313780
0.307920
0.302050
0.297170
0.292280
0.287390
0.282500
0.277610
0.273700
0.270770
0.265880
0.261000
0.257090
0.257090
0.263930
0.278590
0.304010
0.338220
0.380250
0.428150
0.478980
0.522970
0.561090
0.601170
0.637340
0.668620
0.694040
0.714570
0.729230
0.739980
0.745850
0.748780
0.748780
0.744870
0.739980
0.733140
0.724340
0.714570
0.702830
0.689150
0.674490
0.658850
0.640270
0.620720
0.599220
0.576740
0.557180
0.537630
0.517110
0.496580
0.477030
0.459430
0.443790
0.430110
0.417400
0.407620
0.398830
0.391980
0.388070
0.385140
0.382210
0.379280
0.376340
0.373410
0.369500
0.366570
0.362660
0.357770
0.353860
0.348970
0.345060
0.341150
0.337240
0.332360
0.326490
0.321600
0.315740
0.310850
0.304990
0.299120
0.294230
0.288370
0.283480
0.279570
0.276640
0.271750
0.266860
0.262950
0.261000
0.262950
0.272730
0.291300
0.319650
0.356790
0.400780
0.442820
0.482890
0.527860
0.571850
0.612900
0.647120
0.676440
0.699900
0.717500
0.729230
0.738030
0.741940
0.743890
0.741940
0.738030
0.732160
0.724340
0.715540
0.704790
0.693060
0.678400
0.662760
0.645160
0.625610
0.605080
0.585530
0.565980
0.545450
0.523950
0.502440
0.481920
0.463340
0.446730
0.432060
0.419350
0.409580
0.400780
0.394920
0.390030
0.387100
0.384160
0.381230
0.378300
0.375370
0.372430
0.369500
0.365590
0.362660
0.358750
0.354840
0.350930
0.348000
0.344090
0.339200
0.333330
0.327470
0.321600
0.315740
0.309870
0.304010
0.299120
0.293260
0.288370
0.284460
0.280550
0.275660
0.270770
0.265880
0.261970
0.262950
0.269790
0.284460
0.308900
0.343110
0.384160
0.424240
0.463340
0.508310
0.552300
0.594330
0.630500
0.660800
0.686220
0.705770
0.719450
0.729230
0.736070
0.738030
0.737050
0.732160
0.727270
0.722390
0.714570
0.705770
0.695010
0.682310
0.668620
0.652000
0.634410
0.614860
0.596290
0.577710
0.556210
0.534700
0.513200
0.492670
0.473120
0.455520
0.439880
0.427170
0.415440
0.406650
0.398830
0.391980
0.387100
0.383190
0.379280
0.375370
0.372430
0.369500
0.365590
0.362660
0.358750
0.353860
0.348970
0.346040
0.342130
0.338220
0.333330
0.328450
0.322580
0.316720
0.310850
0.304990
0.299120
0.294230
0.289350
0.283480
0.280550
0.276640
0.272730
0.266860
0.261970
0.257090
0.256110
0.260020
0.270770
0.290320
0.319650
0.357770
0.395890
0.434020
0.478980
0.523950
0.567940
0.607040
0.640270
0.667640
0.689150
0.705770
0.717500
0.725320
0.729230
0.730210
0.727270
0.724340
0.718480
0.710650
0.701860
0.691100
0.678400
0.663730
0.648090
0.629520
0.609970
0.591400
0.572830
0.552300
0.529810
0.507330
0.485830
0.464320
0.445750
0.428150
0.413490
0.400780
0.390030
0.382210
0.376340
0.372430
0.369500
0.365590
0.363640
0.360700
0.358750
0.355820
0.352880
0.349950
0.346040
0.342130
0.339200
0.337240
0.333330
0.328450
0.323560
0.318670
0.313780
0.308900
0.303030
0.298140
0.293260
0.289350
0.285430
0.283480
0.279570
0.274680
0.269790
0.263930
0.260020
0.258060
0.261970
0.271750
0.291300
0.319650
0.357770
0.395890
0.435000
0.479960
0.526880
0.571850
0.611930
0.647120
0.675460
0.697950
0.714570
0.726300
0.734120
0.737050
0.736070
0.734120
0.730210
0.724340
0.716520
0.706740
0.695990
0.682310
0.667640
0.651030
0.632450
0.611930
0.592380
0.573800
0.553270
0.531770
0.510260
0.490710
0.471160
0.454550
0.439880
0.428150
0.417400
0.408600
0.402740
0.397850
0.393940
0.390030
0.386120
0.383190
0.380250
0.376340
0.372430
0.368520
0.364610
0.359730
0.354840
0.350930
0.348000
0.343110
0.337240
0.332360
0.326490
0.320630
0.314760
0.309870
0.304010
0.299120
0.294230
0.290320
0.287390
0.283480
0.278590
0.272730
0.266860
0.261970
0.258060
0.259040
0.265880
0.280550
0.305960
0.341150
0.377320
0.415440
0.460410
0.509290
0.556210
0.599220
0.636360
0.667640
0.693060
0.713590
0.728250
0.738030
0.742910
0.743890
0.742910
0.739980
0.735090
0.729230
0.720430
0.710650
0.698920
0.685240
0.669600
0.652980
0.634410
0.615840
0.598240
0.577710
0.556210
0.533720
0.512220
0.490710
0.471160
0.453570
0.437930
0.425220
0.413490
0.405670
0.398830
0.393940
0.389050
0.384160
0.380250
0.377320
0.374390
0.369500
0.365590
0.362660
0.358750
0.354840
0.351910
0.348000
0.344090
0.340180
0.335290
0.329420
0.324540
0.318670
0.313780
0.307920
0.302050
0.296190
0.292280
0.289350
0.285430
0.280550
0.275660
0.269790
0.263930
0.259040
0.259040
0.261970
0.269790
0.287390
0.320630
0.354840
0.385140
0.426200
0.473120
0.521020
0.565980
0.607040
0.642230
0.671550
0.695010
0.713590
0.726300
0.733140
0.737050
0.738030
0.738030
0.735090
0.730210
0.723360
0.714570
0.703810
0.692080
0.678400
0.662760
0.645160
0.627570
0.609970
0.584560
0.560120
0.542520
0.521990
0.500490
0.480940
0.462370
0.444770
0.430110
0.417400
0.408600
0.400780
0.393940
0.388070
0.383190
0.378300
0.374390
0.370480
0.367550
0.364610
0.361680
0.357770
0.353860
0.350930
0.347020
0.343110
0.339200
0.335290
0.330400
0.324540
0.319650
0.313780
0.308900
0.303030
0.297170
0.293260
0.290320
0.286410
0.281520
0.276640
0.268820
0.261970
0.258060
0.255130
0.260020
0.269790
0.281520
0.299120
0.337240
0.380250
0.427170
0.489740
0.532750
0.565000
0.608020
0.645160
0.669600
0.691100
0.710650
0.725320
0.732160
0.736070
0.737050
0.737050
0.733140
0.726300
0.717500
0.707720
0.695990
0.682310
0.671550
0.658850
0.639300
0.624630
0.606060
0.579670
0.554250
0.536660
0.516130
0.490710
0.469210
0.449660
0.434020
0.419350
0.409580
0.400780
0.393940
0.387100
0.381230
0.376340
0.372430
0.368520
0.365590
0.361680
0.357770
0.354840
0.351910
0.348970
0.345060
0.341150
0.336270
0.331380
0.325510
0.320630
0.314760
0.307920
0.302050
0.296190
0.290320
0.285430
0.281520
0.277610
0.271750
0.266860
0.261000
0.255130
0.249270
0.244380
0.243400
0.247310
0.259040
0.275660
0.299120
0.334310
0.377320
0.425220
0.476050
0.524930
0.570870
0.610950
0.645160
0.673510
0.695990
0.712610
0.723360
0.729230
0.733140
0.735090
0.734120
0.731180
0.726300
0.718480
0.708700
0.697950
0.684260
0.669600
0.654940
0.639300
0.620720
0.600200
0.578690
0.556210
0.533720
0.511240
0.490710
0.471160
0.454550
0.438910
0.426200
0.416420
0.409580
0.403710
0.398830
0.393940
0.391010
0.389050
0.386120
0.384160
0.382210
0.379280
0.376340
0.374390
0.372430
0.369500
0.365590
0.361680
0.356790
0.351910
0.347020
0.342130
0.336270
0.331380
0.325510
0.320630
0.315740
0.312810
0.308900
0.304010
0.298140
0.292280
0.286410
0.280550
0.277610
0.278590
0.286410
0.303030
0.324540
0.351910
0.389050
0.435000
0.482890
0.531770
0.578690
0.619750
0.654940
0.684260
0.706740
0.724340
0.736070
0.742910
0.744870
0.745850
0.743890
0.739980
0.734120
0.726300
0.716520
0.705770
0.693060
0.678400
0.662760
0.646140
0.630500
0.612900
0.592380
0.570870
0.548390
0.526880
0.505380
0.484850
0.466280
0.448680
0.434020
0.421310
0.411530
0.403710
0.396870
0.391010
0.386120
0.382210
0.378300
0.374390
0.371460
0.368520
0.364610
0.360700
0.357770
0.355820
0.351910
0.347020
0.342130
0.337240
0.332360
0.327470
0.322580
0.316720
0.311830
0.305960
0.302050
0.299120
0.295210
0.290320
0.285430
0.280550
0.274680
0.268820
0.263930
0.259040
0.258060
0.261000
0.271750
0.287390
0.309870
0.342130
0.382210
0.429130
0.478980
0.526880
0.572830
0.612900
0.648090
0.676440
0.697950
0.713590
0.722390
0.730210
0.735090
0.736070
0.736070
0.733140
0.727270
0.720430
0.710650
0.699900
0.687190
0.673510
0.658850
0.643210
0.625610
0.606060
0.585530
0.563050
0.540570
0.518080
0.497560
0.477030
0.459430
0.443790
0.431090
0.421310
0.412510
0.403710
0.397850
0.391980
0.387100
0.383190
0.380250
0.377320
0.374390
0.371460
0.368520
0.365590
0.363640
0.359730
0.355820
0.351910
0.347020
0.341150
0.336270
0.331380
0.325510
0.319650
0.314760
0.309870
0.306940
0.302050
0.297170
0.292280
0.287390
0.282500
0.276640
0.271750
0.266860
0.263930
0.264910
0.272730
0.285430
0.304990
0.334310
0.372430
0.416420
0.464320
0.513200
0.559140
0.600200
0.636360
0.666670
0.690130
0.706740
0.718480
0.727270
0.733140
0.736070
0.736070
0.734120
0.729230
0.722390
0.713590
0.703810
0.692080
0.678400
0.664710
0.651030
0.633430
0.614860
0.594330
0.572830
0.551320
0.528840
0.507330
0.487780
0.469210
0.452590
0.439880
0.429130
0.419350
0.409580
0.402740
0.395890
0.391010
0.387100
0.383190
0.380250
0.376340
0.373410
0.370480
0.367550
0.365590
0.362660
0.358750
0.353860
0.349950
0.345060
0.340180
0.334310
0.329420
0.323560
0.317690
0.313780
0.310850
0.305960
0.301080
0.296190
0.291300
0.286410
0.280550
0.274680
0.269790
0.265880
0.265880
0.271750
0.283480
0.301080
0.328450
0.364610
0.407620
0.455520
0.503420
0.550340
0.592380
0.629520
0.660800
0.685240
0.702830
0.713590
0.723360
0.729230
0.732160
0.733140
0.731180
0.726300
0.720430
0.712610
0.702830
0.691100
0.678400
0.665690
0.652000
0.635390
0.616810
0.596290
0.574780
0.552300
0.528840
0.506350
0.484850
0.465300
0.446730
0.433040
0.421310
0.410560
0.400780
0.392960
0.386120
0.381230
0.377320
0.373410
0.370480
0.368520
0.365590
0.363640
0.361680
0.359730
0.356790
0.353860
0.349950
0.346040
0.341150
0.336270
0.330400
0.324540
0.319650
0.314760
0.310850
0.307920
0.304010
0.299120
0.295210
0.290320
0.285430
0.280550
0.274680
0.270770
0.267840
0.268820
0.274680
0.287390
0.308900
0.339200
0.379280
0.426200
0.476050
0.525900
0.573800
0.616810
0.653960
0.684260
0.707720
0.724340
0.734120
0.741940
0.746820
0.748780
0.747800
0.743890
0.738030
0.730210
0.720430
0.708700
0.695990
0.682310
0.667640
0.651030
0.631480
0.610950
0.589440
0.567940
0.545450
0.523950
0.503420
0.483870
0.467250
0.451610
0.440860
0.431090
0.423260
0.415440
0.409580
0.404690
0.399800
0.395890
0.392960
0.389050
0.385140
0.381230
0.378300
0.375370
0.370480
0.366570
0.360700
0.355820
0.349950
0.345060
0.339200
0.333330
0.327470
0.322580
0.316720
0.312810
0.308900
0.304010
0.299120
0.294230
0.289350
0.284460
0.278590
0.271750
0.266860
0.262950
0.263930
0.269790
0.280550
0.301080
0.331380
0.371460
0.417400
0.467250
0.517110
0.565980
0.608990
0.647120
0.678400
0.703810
0.721410
0.732160
0.741940
0.747800
0.751710
0.751710
0.749760
0.745850
0.739000
0.731180
0.721410
0.709680
0.696970
0.684260
0.668620
0.651030
0.631480
0.609970
0.588470
0.565000
0.542520
0.520040
0.498530
0.478980
0.461390
0.446730
0.435000
0.424240
0.414470
0.405670
0.398830
0.392960
0.389050
0.385140
0.381230
0.377320
0.374390
0.371460
0.369500
0.365590
0.361680
0.357770
0.353860
0.348970
0.344090
0.339200
0.333330
0.328450
0.322580
0.317690
0.312810
0.308900
0.304990
0.300100
0.294230
0.289350
0.284460
0.278590
0.272730
0.266860
0.262950
0.261970
0.264910
0.274680
0.291300
0.318670
0.353860
0.397850
0.446730
0.496580
0.545450
0.591400
0.631480
0.665690
0.693060
0.712610
0.725320
0.736070
0.743890
0.748780
0.750730
0.748780
0.745850
0.739980
0.731180
0.721410
0.710650
0.697950
0.685240
0.669600
0.652000
0.633430
0.611930
0.590420
0.567940
0.544480
0.521990
0.500490
0.479960
0.461390
0.446730
0.435000
0.423260
0.413490
0.404690
0.397850
0.391980
0.387100
0.383190
0.379280
0.376340
0.373410
0.370480
0.368520
0.366570
0.363640
0.359730
0.355820
0.351910
0.347020
0.342130
0.337240
0.332360
0.326490
0.320630
0.316720
0.312810
0.307920
0.303030
0.297170
0.292280
0.287390
0.281520
0.275660
0.269790
0.265880
0.263930
0.266860
0.275660
0.292280
0.317690
0.352880
0.395890
0.444770
0.494620
0.543500
0.589440
0.629520
0.663730
0.688170
0.706740
0.720430
0.731180
0.739000
0.743890
0.745850
0.744870
0.740960
0.735090
0.727270
0.717500
0.706740
0.695010
0.682310
0.666670
0.650050
0.631480
0.610950
0.588470
0.565980
0.542520
0.520040
0.498530
0.478010
0.461390
0.446730
0.433040
0.421310
0.409580
0.400780
0.392960
0.387100
0.381230
0.377320
0.373410
0.370480
0.366570
0.363640
0.361680
0.358750
0.354840
0.349950
0.345060
0.340180
0.334310
0.328450
0.323560
0.317690
0.311830
0.306940
0.303030
0.297170
0.292280
0.286410
0.280550
0.275660
0.269790
0.263930
0.257090
0.251220
0.245360
0.243400
0.245360
0.252200
0.267840
0.292280
0.326490
0.369500
0.417400
0.468230
0.518080
0.565000
0.607040
0.642230
0.668620
0.688170
0.704790
0.717500
0.727270
0.733140
0.736070
0.735090
0.732160
0.727270
0.719450
0.710650
0.699900
0.688170
0.675460
0.660800
0.644180
0.624630
0.604110
0.582600
0.560120
0.537630
0.515150
0.493650
0.473120
0.457480
0.443790
0.431090
0.419350
0.409580
0.401760
0.394920
0.391010
0.387100
0.385140
0.383190
0.381230
0.379280
0.378300
0.376340
0.374390
0.371460
0.368520
0.364610
0.360700
0.355820
0.351910
0.347020
0.341150
0.336270
0.332360
0.329420
0.325510
0.321600
0.316720
0.312810
0.307920
0.303030
0.297170
0.291300
0.286410
0.284460
0.286410
0.294230
0.307920
0.332360
0.365590
0.407620
0.454550
0.504400
0.553270
0.598240
0.638320
0.672530
0.699900
0.718480
0.731180
0.741940
0.748780
0.752690
0.752690
0.750730
0.745850
0.739000
0.730210
0.720430
0.707720
0.694040
0.680350
0.665690
0.649070
0.629520
0.608020
0.585530
0.562070
0.538610
0.516130
0.493650
0.473120
0.453570
0.438910
0.427170
0.415440
0.404690
0.396870
0.389050
0.384160
0.379280
0.375370
0.371460
0.368520
0.364610
0.361680
0.358750
0.356790
0.352880
0.348970
0.344090
0.339200
0.334310
0.328450
0.323560
0.317690
0.311830
0.305960
0.302050
0.298140
0.293260
0.288370
0.283480
0.279570
0.274680
0.268820
0.262950
0.257090
0.252200
0.249270
0.249270
0.255130
0.267840
0.289350
0.320630
0.360700
0.407620
0.457480
0.509290
0.557180
0.602150
0.640270
0.672530
0.695010
0.711630
0.725320
0.736070
0.742910
0.746820
0.746820
0.743890
0.739000
0.732160
0.723360
0.712610
0.701860
0.689150
0.675460
0.658850
0.641250
0.621700
0.600200
0.577710
0.554250
0.530790
0.508310
0.485830
0.466280
0.450640
0.436950
0.424240
0.413490
0.403710
0.395890
0.390030
0.385140
0.382210
0.381230
0.379280
0.376340
0.374390
0.372430
0.369500
0.365590
0.361680
0.357770
0.353860
0.348970
0.344090
0.339200
0.334310
0.328450
0.323560
0.318670
0.315740
0.310850
0.305960
0.300100
0.295210
0.290320
0.285430
0.279570
0.273700
0.267840
0.264910
0.264910
0.268820
0.279570
0.299120
0.327470
0.363640
0.407620
0.455520
0.504400
0.551320
0.595310
0.632450
0.663730
0.686220
0.702830
0.716520
0.727270
0.734120
0.738030
0.739000
0.738030
0.734120
0.728250
0.720430
0.710650
0.700880
0.689150
0.676440
0.660800
0.644180
0.624630
0.604110
0.582600
0.561090
0.538610
0.516130
0.495600
0.476050
0.460410
0.447700
0.435000
0.423260
0.413490
0.404690
0.397850
0.391980
0.388070
0.384160
0.380250
0.377320
0.374390
0.372430
0.369500
0.366570
0.362660
0.358750
0.354840
0.349950
0.345060
0.340180
0.335290
0.330400
0.324540
0.320630
0.316720
0.312810
0.307920
0.303030
0.298140
0.293260
0.287390
0.282500
0.276640
0.270770
0.266860
0.266860
0.270770
0.281520
0.300100
0.328450
0.365590
0.409580
0.457480
0.506350
0.553270
0.597260
0.634410
0.665690
0.689150
0.704790
0.719450
0.730210
0.738030
0.741940
0.742910
0.740960
0.737050
0.731180
0.723360
0.713590
0.702830
0.691100
0.676440
0.660800
0.643210
0.623660
0.602150
0.579670
0.557180
0.533720
0.511240
0.489740
0.470190
0.453570
0.440860
0.428150
0.416420
0.405670
0.397850
0.391010
0.385140
0.381230
0.377320
0.374390
0.371460
0.369500
0.368520
0.365590
0.362660
0.359730
0.355820
0.351910
0.347020
0.342130
0.336270
0.331380
0.325510
0.319650
0.314760
0.310850
0.305960
0.300100
0.295210
0.289350
0.284460
0.279570
0.273700
0.267840
0.261970
0.258060
0.258060
0.261970
0.272730
0.292280
0.321600
0.360700
0.405670
0.455520
0.505380
0.554250
0.598240
0.636360
0.664710
0.686220
0.704790
0.720430
0.732160
0.739000
0.742910
0.743890
0.741940
0.737050
0.729230
0.720430
0.709680
0.697950
0.686220
0.671550
0.654940
0.636360
0.616810
0.595310
0.572830
0.550340
0.527860
0.506350
0.486800
0.470190
0.457480
0.444770
0.433040
0.424240
0.416420
0.410560
0.406650
0.403710
0.401760
0.398830
0.396870
0.394920
0.393940
0.391980
0.389050
0.386120
0.382210
0.378300
0.373410
0.367550
0.362660
0.356790
0.350930
0.346040
0.341150
0.337240
0.333330
0.328450
0.322580
0.317690
0.312810
0.306940
0.301080
0.295210
0.288370
0.283480
0.282500
0.285430
0.294230
0.309870
0.336270
0.372430
0.415440
0.464320
0.515150
0.564030
0.608020
0.647120
0.680350
0.702830
0.719450
0.734120
0.744870
0.751710
0.755620
0.756600
0.754640
0.750730
0.743890
0.735090
0.725320
0.713590
0.700880
0.688170
0.672530
0.654940
0.635390
0.614860
0.592380
0.568910
0.545450
0.521990
0.499510
0.478980
0.461390
0.447700
0.433040
0.420330
0.408600
0.399800
0.391980
0.386120
0.382210
0.378300
0.374390
0.371460
0.368520
0.366570
0.363640
0.360700
0.356790
0.352880
0.348970
0.344090
0.339200
0.334310
0.328450
0.323560
0.317690
0.313780
0.309870
0.304990
0.300100
0.295210
0.290320
0.284460
0.279570
0.273700
0.267840
0.261970
0.257090
0.255130
0.258060
0.265880
0.281520
0.306940
0.341150
0.385140
0.433040
0.484850
0.534700
0.581620
0.623660
0.659820
0.685240
0.703810
0.720430
0.733140
0.742910
0.747800
0.750730
0.749760
0.745850
0.740960
0.733140
0.724340
0.712610
0.700880
0.688170
0.673510
0.656890
0.638320
0.617790
0.595310
0.572830
0.549360
0.525900
0.504400
0.482890
0.466280
0.452590
0.438910
0.426200
0.414470
0.405670
0.397850
0.391010
0.386120
0.381230
0.377320
0.374390
0.371460
0.368520
0.366570
0.363640
0.359730
0.355820
0.351910
0.347020
0.342130
0.337240
0.332360
0.326490
0.321600
0.316720
0.313780
0.308900
0.304010
0.299120
0.293260
0.288370
0.282500
0.277610
0.271750
0.265880
0.261000
0.259040
0.261970
0.270770
0.287390
0.313780
0.349950
0.392960
0.440860
0.491690
0.540570
0.586510
0.626590
0.660800
0.686220
0.703810
0.720430
0.733140
0.741940
0.746820
0.748780
0.747800
0.743890
0.738030
0.730210
0.720430
0.709680
0.698920
0.685240
0.669600
0.652000
0.633430
0.612900
0.590420
0.567940
0.544480
0.521990
0.499510
0.478980
0.462370
0.448680
0.435000
0.422290
0.411530
0.402740
0.395890
0.391010
0.386120
0.382210
0.378300
0.375370
0.373410
0.371460
0.368520
0.364610
0.361680
0.356790
0.352880
0.348970
0.344090
0.338220
0.333330
0.328450
0.322580
0.318670
0.314760
0.309870
0.304990
0.299120
0.294230
0.289350
0.283480
0.277610
0.271750
0.265880
0.261000
0.260020
0.263930
0.273700
0.292280
0.319650
0.356790
0.401760
0.450640
0.500490
0.549360
0.594330
0.634410
0.667640
0.691100
0.708700
0.724340
0.736070
0.743890
0.748780
0.749760
0.747800
0.743890
0.738030
0.729230
0.719450
0.708700
0.696970
0.682310
0.666670
0.648090
0.627570
0.606060
0.583580
0.560120
0.534700
0.509290
0.486800
0.465300
0.448680
0.435000
0.421310
0.408600
0.398830
0.390030
0.382210
0.376340
0.372430
0.368520
0.364610
0.362660
0.360700
0.358750
0.356790
0.353860
0.349950
0.346040
0.342130
0.337240
0.332360
0.326490
0.321600
0.315740
0.308900
0.304010
0.300100
0.295210
0.289350
0.283480
0.277610
0.272730
0.266860
0.261000
0.255130
0.249270
0.245360
0.244380
0.248290
0.258060
0.276640
0.304990
0.342130
0.388070
0.436950
0.488760
0.537630
0.582600
0.621700
0.654940
0.678400
0.695010
0.709680
0.721410
0.728250
0.733140
0.733140
0.731180
0.727270
0.720430
0.712610
0.701860
0.691100
0.679370
0.665690
0.649070
0.631480
0.611930
0.590420
0.568910
0.546430
0.524930
0.503420
0.482890
0.465300
0.450640
0.438910
0.427170
0.417400
0.409580
0.403710
0.398830
0.394920
0.392960
0.391010
0.389050
0.387100
0.385140
0.384160
0.381230
0.378300
0.375370
0.371460
0.367550
0.362660
0.357770
0.352880
0.348000
0.342130
0.336270
0.332360
0.328450
0.324540
0.319650
0.314760
0.308900
0.303030
0.297170
0.290320
0.283480
0.279570
0.279570
0.284460
0.295210
0.315740
0.345060
0.384160
0.430110
0.478980
0.527860
0.574780
0.616810
0.652980
0.682310
0.702830
0.717500
0.730210
0.739000
0.743890
0.746820
0.745850
0.741940
0.736070
0.728250
0.719450
0.707720
0.695010
0.682310
0.667640
0.652000
0.633430
0.612900
0.591400
0.568910
0.545450
0.522970
0.500490
0.479960
0.460410
0.444770
0.432060
0.419350
0.407620
0.397850
0.389050
0.382210
0.377320
0.372430
0.368520
0.364610
0.361680
0.357770
0.355820
0.352880
0.349950
0.346040
0.342130
0.337240
0.332360
0.327470
0.322580
0.317690
0.312810
0.306940
0.303030
0.300100
0.295210
0.290320
0.285430
0.280550
0.275660
0.269790
0.264910
0.259040
0.253180
0.250240
0.251220
0.257090
0.267840
0.289350
0.319650
0.358750
0.404690
0.455520
0.505380
0.554250
0.597260
0.635390
0.666670
0.688170
0.703810
0.717500
0.727270
0.734120
0.737050
0.737050
0.734120
0.729230
0.721410
0.712610
0.702830
0.690130
0.677420
0.664710
0.649070
0.631480
0.611930
0.591400
0.568910
0.546430
0.523950
0.502440
0.480940
0.461390
0.445750
0.433040
0.419350
0.408600
0.397850
0.390030
0.383190
0.378300
0.373410
0.369500
0.366570
0.363640
0.360700
0.358750
0.356790
0.354840
0.350930
0.347020
0.343110
0.339200
0.334310
0.329420
0.323560
0.318670
0.312810
0.308900
0.304990
0.300100
0.297170
0.295210
0.291300
0.287390
0.282500
0.276640
0.270770
0.265880
0.262950
0.264910
0.270770
0.283480
0.305960
0.337240
0.377320
0.423260
0.473120
0.521990
0.567940
0.608990
0.645160
0.674490
0.695010
0.709680
0.721410
0.730210
0.736070
0.739000
0.738030
0.735090
0.729230
0.722390
0.713590
0.702830
0.690130
0.677420
0.663730
0.647120
0.629520
0.608990
0.588470
0.565980
0.543500
0.521020
0.499510
0.479960
0.461390
0.446730
0.435000
0.423260
0.412510
0.403710
0.396870
0.390030
0.385140
0.381230
0.378300
0.375370
0.373410
0.370480
0.368520
0.366570
0.363640
0.359730
0.355820
0.351910
0.348000
0.343110
0.338220
0.332360
0.327470
0.321600
0.317690
0.313780
0.309870
0.304990
0.300100
0.294230
0.289350
0.283480
0.277610
0.271750
0.267840
0.266860
0.270770
0.279570
0.295210
0.320630
0.354840
0.397850
0.444770
0.493650
0.541540
0.586510
0.625610
0.658850
0.686220
0.705770
0.718480
0.729230
0.736070
0.740960
0.741940
0.740960
0.737050
0.730210
0.722390
0.712610
0.700880
0.689150
0.676440
0.660800
0.644180
0.624630
0.604110
0.582600
0.560120
0.536660
0.514170
0.492670
0.472140
0.454550
0.439880
0.428150
0.416420
0.406650
0.397850
0.391010
0.385140
0.380250
0.376340
0.373410
0.370480
0.367550
0.364610
0.362660
0.359730
0.356790
0.352880
0.348000
0.344090
0.339200
0.333330
0.328450
0.322580
0.316720
0.310850
0.305960
0.302050
0.297170
0.291300
0.286410
0.280550
0.274680
0.268820
0.262950
0.257090
0.253180
0.252200
0.255130
0.264910
0.282500
0.309870
0.347020
0.391010
0.439880
0.489740
0.538610
0.582600
0.621700
0.653960
0.680350
0.698920
0.711630
0.722390
0.729230
0.734120
0.735090
0.734120
0.730210
0.724340
0.716520
0.705770
0.695010
0.682310
0.669600
0.653960
0.636360
0.616810
0.596290
0.573800
0.551320
0.529810
0.508310
0.487780
0.469210
0.453570
0.439880
0.430110
0.421310
0.413490
0.407620
0.402740
0.399800
0.396870
0.394920
0.392960
0.391980
0.390030
0.388070
0.387100
0.384160
0.381230
0.377320
0.373410
0.368520
0.363640
0.358750
0.353860
0.348970
0.344090
0.339200
0.335290
0.331380
0.327470
0.322580
0.317690
0.311830
0.305960
0.299120
0.293260
0.288370
0.288370
0.294230
0.304990
0.322580
0.349950
0.387100
0.431090
0.478980
0.527860
0.573800
0.615840
0.652000
0.682310
0.705770
0.723360
0.735090
0.740960
0.744870
0.746820
0.745850
0.742910
0.737050
0.729230
0.720430
0.709680
0.696970
0.683280
0.669600
0.654940
0.637340
0.618770
0.598240
0.575760
0.553270
0.530790
0.508310
0.486800
0.467250
0.449660
0.434020
0.422290
0.413490
0.404690
0.396870
0.390030
0.385140
0.380250
0.376340
0.373410
0.370480
0.367550
0.363640
0.360700
0.358750
0.354840
0.350930
0.347020
0.342130
0.337240
0.332360
0.327470
0.322580
0.317690
0.311830
0.306940
0.303030
0.299120
0.295210
0.290320
0.285430
0.280550
0.274680
0.268820
0.262950
0.259040
0.259040
0.264910
0.274680
0.292280
0.319650
0.355820
0.399800
0.447700
0.496580
0.544480
0.588470
0.627570
0.659820
0.685240
0.703810
0.715540
0.725320
0.732160
0.736070
0.737050
0.735090
0.731180
0.724340
0.716520
0.705770
0.695010
0.681330
0.667640
0.653960
0.637340
0.618770
0.598240
0.576740
0.555230
0.532750
0.510260
0.489740
0.470190
0.452590
0.438910
0.428150
0.417400
0.408600
0.400780
0.393940
0.389050
0.384160
0.380250
0.377320
0.374390
0.371460
0.368520
0.365590
0.363640
0.360700
0.356790
0.352880
0.348000
0.344090
0.339200
0.334310
0.329420
0.323560
0.318670
0.314760
0.310850
0.305960
0.301080
0.296190
0.291300
0.285430
0.279570
0.273700
0.268820
0.264910
0.264910
0.270770
0.282500
0.300100
0.327470
0.364610
0.408600
0.456500
0.505380
0.552300
0.595310
0.632450
0.663730
0.689150
0.706740
0.718480
0.727270
0.734120
0.738030
0.739000
0.737050
0.732160
0.725320
0.717500
0.706740
0.695010
0.680350
0.666670
0.652000
0.634410
0.615840
0.594330
0.572830
0.550340
0.527860
0.506350
0.485830
0.467250
0.449660
0.436950
0.426200
0.416420
0.407620
0.399800
0.393940
0.389050
0.385140
0.382210
0.379280
0.376340
0.373410
0.369500
0.367550
0.365590
0.361680
0.357770
0.353860
0.348970
0.345060
0.340180
0.334310
0.329420
0.323560
0.318670
0.313780
0.310850
0.305960
0.301080
0.296190
0.291300
0.286410
0.280550
0.274680
0.268820
0.265880
0.266860
0.274680
0.288370
0.306940
0.336270
0.375370
0.419350
0.468230
0.516130
0.562070
0.603130
0.639300
0.668620
0.692080
0.707720
0.718480
0.727270
0.732160
0.735090
0.735090
0.732160
0.727270
0.721410
0.712610
0.702830
0.691100
0.677420
0.663730
0.650050
0.633430
0.613880
0.593350
0.571850
0.549360
0.526880
0.505380
0.485830
0.466280
0.449660
0.436950
0.426200
0.416420
0.407620
0.399800
0.393940
0.388070
0.384160
0.381230
0.378300
0.376340
0.373410
0.369500
0.364610
0.359730
0.354840
0.351910
0.354840
0.367550
0.386120
0.408600
0.428150
0.438910
0.438910
0.429130
0.416420
0.402740
0.387100
0.373410
0.362660
0.353860
0.346040
0.338220
0.330400
0.323560
0.319650
0.319650
0.326490
0.339200
0.358750
0.388070
0.425220
0.469210
0.516130
0.563050
0.606060
0.645160
0.678400
0.704790
0.726300
0.739980
0.748780
0.755620
0.759530
0.760510
0.759530
0.755620
0.748780
0.740960
0.731180
0.719450
0.706740
0.693060
0.679370
0.662760
0.644180
0.623660
0.602150
0.578690
0.555230
0.531770
0.508310
0.486800
0.466280
0.449660
0.436950
0.427170
0.418380
0.408600
0.397850
0.382210
0.361680
0.337240
0.310850
0.286410
0.265880
0.251220
0.243400
0.240470
0.239490
0.239490
0.239490
0.238510
0.237540
0.236560
0.234600
0.232650
0.230690
0.228740
0.225810
0.224830
0.224830
0.223850
0.221900
0.219940
0.217010
0.214080
0.211140
0.208210
0.207230
0.210170
0.219940
0.234600
0.256110
0.288370
0.329420
0.377320
0.429130
0.479960
0.528840
0.572830
0.610950
0.642230
0.666670
0.686220
0.698920
0.705770
0.711630
0.713590
0.713590
0.711630
0.705770
0.698920
0.689150
0.678400
0.665690
0.651030
0.637340
0.621700
0.604110
0.584560
0.564030
0.542520
0.520040
0.498530
0.478010
0.459430
0.441840
0.427170
0.414470
0.405670
0.397850
0.391010
0.386120
0.381230
0.377320
0.373410
0.370480
0.367550
0.364610
0.361680
0.358750
0.355820
0.352880
0.348970
0.344090
0.339200
0.334310
0.328450
0.323560
0.317690
0.312810
0.306940
0.302050
0.296190
0.292280
0.289350
0.285430
0.281520
0.276640
0.270770
0.264910
0.259040
0.253180
0.251220
0.253180
0.261970
0.275660
0.297170
0.328450
0.369500
0.417400
0.467250
0.518080
0.565980
0.608990
0.645160
0.675460
0.698920
0.717500
0.729230
0.736070
0.739980
0.741940
0.740960
0.738030
0.733140
0.726300
0.717500
0.706740
0.695010
0.681330
0.667640
0.652980
0.635390
0.615840
0.595310
0.572830
0.550340
0.527860
0.505380
0.483870
0.464320
0.446730
0.431090
0.419350
0.409580
0.401760
0.393940
0.388070
0.383190
0.378300
0.375370
0.372430
0.369500
0.366570
0.362660
0.360700
0.358750
0.354840
0.351910
0.347020
0.343110
0.338220
0.333330
0.328450
0.322580
0.317690
0.311830
0.305960
0.302050
0.299120
0.294230
0.290320
0.284460
0.279570
0.273700
0.267840
0.261970
0.258060
0.259040
0.266860
0.278590
0.298140
0.328450
0.367550
0.412510
0.462370
0.512220
0.560120
0.603130
0.641250
0.669600
0.691100
0.707720
0.718480
0.725320
0.729230
0.732160
0.732160
0.729230
0.725320
0.719450
0.711630
0.701860
0.691100
0.678400
0.665690
0.652000
0.636360
0.618770
0.600200
0.579670
0.559140
0.538610
0.519060
0.500490
0.482890
0.467250
0.455520
0.445750
0.436950
0.429130
0.422290
0.416420
0.412510
0.408600
0.405670
0.402740
0.399800
0.396870
0.393940
0.391010
0.389050
0.386120
0.383190
0.379280
0.375370
0.371460
0.367550
0.362660
0.357770
0.352880
0.348000
0.344090
0.341150
0.337240
0.333330
0.328450
0.323560
0.318670
0.312810
0.307920
0.303030
0.300100
0.301080
0.308900
0.320630
0.338220
0.365590
0.400780
0.441840
0.485830
0.530790
0.571850
0.609970
0.642230
0.668620
0.690130
0.704790
0.714570
0.721410
0.727270
0.729230
0.729230
0.727270
0.723360
0.716520
0.708700
0.699900
0.689150
0.676440
0.663730
0.650050
0.634410
0.617790
0.598240
0.578690
0.558160
0.537630
0.518080
0.499510
0.481920
0.466280
0.453570
0.443790
0.434020
0.425220
0.418380
0.412510
0.406650
0.402740
0.398830
0.395890
0.392960
0.390030
0.387100
0.384160
0.382210
0.379280
0.376340
0.372430
0.367550
0.363640
0.358750
0.352880
0.348000
0.343110
0.337240
0.333330
0.329420
0.325510
0.320630
0.315740
0.310850
0.305960
0.300100
0.295210
0.290320
0.287390
0.288370
0.295210
0.307920
0.326490
0.354840
0.391010
0.434020
0.478980
0.524930
0.566960
0.606060
0.638320
0.665690
0.687190
0.700880
0.710650
0.717500
0.722390
0.725320
0.725320
0.722390
0.718480
0.712610
0.704790
0.695010
0.684260
0.671550
0.658850
0.645160
0.629520
0.611930
0.592380
0.572830
0.552300
0.531770
0.512220
0.494620
0.478980
0.464320
0.453570
0.445750
0.437930
0.432060
0.427170
0.424240
0.421310
0.419350
0.418380
0.416420
0.414470
0.412510
0.410560
0.408600
0.406650
0.403710
0.400780
0.396870
0.392960
0.389050
0.384160
0.380250
0.375370
0.370480
0.365590
0.361680
0.358750
0.354840
0.350930
0.346040
0.340180
0.334310
0.328450
0.322580
0.319650
0.320630
0.328450
0.345060
0.364610
0.390030
0.425220
0.466280
0.510260
0.554250
0.595310
0.631480
0.661780
0.686220
0.705770
0.720430
0.728250
0.733140
0.735090
0.736070
0.734120
0.729230
0.723360
0.715540
0.706740
0.695990
0.684260
0.671550
0.657870
0.644180
0.628540
0.610950
0.591400
0.571850
0.551320
0.530790
0.511240
0.492670
0.476050
0.460410
0.446730
0.436950
0.429130
0.421310
0.415440
0.404690
0.391980
0.384160
0.378300
0.374390
0.370480
0.367550
0.364610
0.361680
0.359730
0.355820
0.351910
0.348000
0.343110
0.338220
0.333330
0.328450
0.323560
0.318670
0.313780
0.308900
0.304990
0.301080
0.297170
0.292280
0.287390
0.282500
0.276640
0.270770
0.264910
0.261970
0.262950
0.269790
0.281520
0.300100
0.329420
0.367550
0.412510
0.461390
0.510260
0.557180
0.600200
0.637340
0.667640
0.693060
0.711630
0.724340
0.731180
0.737050
0.739980
0.739980
0.737050
0.732160
0.726300
0.717500
0.707720
0.695010
0.681330
0.667640
0.652980
0.635390
0.615840
0.595310
0.572830
0.549360
0.525900
0.503420
0.482890
0.463340
0.445750
0.431090
0.420330
0.411530
0.403710
0.396870
0.391980
0.388070
0.384160
0.381230
0.379280
0.376340
0.373410
0.371460
0.368520
0.366570
0.363640
0.359730
0.354840
0.349950
0.345060
0.340180
0.335290
0.329420
0.324540
0.319650
0.313780
0.309870
0.306940
0.302050
0.297170
0.292280
0.287390
0.281520
0.275660
0.269790
0.266860
0.267840
0.275660
0.288370
0.306940
0.336270
0.374390
0.418380
0.467250
0.515150
0.562070
0.604110
0.640270
0.670580
0.695010
0.713590
0.725320
0.733140
0.738030
0.740960
0.740960
0.738030
0.733140
0.727270
0.718480
0.708700
0.696970
0.683280
0.669600
0.654940
0.637340
0.617790
0.597260
0.574780
0.552300
0.529810
0.508310
0.487780
0.468230
0.451610
0.436950
0.426200
0.417400
0.409580
0.402740
0.396870
0.391980
0.388070
0.385140
0.382210
0.379280
0.376340
0.373410
0.370480
0.368520
0.365590
0.361680
0.357770
0.352880
0.348000
0.343110
0.338220
0.332360
0.327470
0.321600
0.316720
0.312810
0.308900
0.304010
0.299120
0.294230
0.289350
0.283480
0.276640
0.271750
0.268820
0.268820
0.276640
0.289350
0.307920
0.337240
0.374390
0.419350
0.467250
0.515150
0.561090
0.602150
0.637340
0.667640
0.691100
0.709680
0.721410
0.728250
0.733140
0.736070
0.736070
0.734120
0.729230
0.722390
0.714570
0.703810
0.692080
0.679370
0.665690
0.651030
0.633430
0.614860
0.594330
0.571850
0.549360
0.525900
0.503420
0.481920
0.462370
0.443790
0.430110
0.418380
0.407620
0.398830
0.391010
0.385140
0.380250
0.376340
0.373410
0.371460
0.369500
0.368520
0.366570
0.364610
0.363640
0.360700
0.357770
0.354840
0.350930
0.346040
0.342130
0.337240
0.332360
0.327470
0.322580
0.318670
0.315740
0.312810
0.308900
0.304010
0.300100
0.294230
0.289350
0.283480
0.279570
0.278590
0.281520
0.291300
0.306940
0.330400
0.365590
0.408600
0.456500
0.507330
0.556210
0.601170
0.640270
0.673510
0.700880
0.721410
0.734120
0.741940
0.747800
0.750730
0.749760
0.746820
0.741940
0.734120
0.724340
0.713590
0.700880
0.686220
0.669600
0.653960
0.637340
0.617790
0.596290
0.573800
0.550340
0.527860
0.505380
0.484850
0.467250
0.450640
0.436950
0.426200
0.418380
0.410560
0.404690
0.398830
0.394920
0.391010
0.388070
0.384160
0.381230
0.378300
0.374390
0.370480
0.366570
0.363640
0.358750
0.353860
0.348970
0.343110
0.337240
0.332360
0.326490
0.320630
0.315740
0.309870
0.305960
0.302050
0.298140
0.293260
0.288370
0.283480
0.277610
0.272730
0.266860
0.261970
0.260020
0.263930
0.274680
0.290320
0.312810
0.345060
0.387100
0.435000
0.485830
0.535680
0.582600
0.623660
0.658850
0.688170
0.711630
0.726300
0.736070
0.743890
0.749760
0.751710
0.751710
0.748780
0.742910
0.736070
0.727270
0.716520
0.703810
0.689150
0.674490
0.658850
0.641250
0.620720
0.600200
0.577710
0.555230
0.531770
0.510260
0.489740
0.470190
0.453570
0.439880
0.429130
0.418380
0.409580
0.401760
0.394920
0.390030
0.386120
0.382210
0.378300
0.375370
0.371460
0.368520
0.365590
0.362660
0.359730
0.355820
0.350930
0.347020
0.342130
0.336270
0.331380
0.325510
0.319650
0.313780
0.309870
0.305960
0.301080
0.296190
0.291300
0.286410
0.280550
0.274680
0.268820
0.263930
0.260020
0.261000
0.268820
0.281520
0.301080
0.330400
0.369500
0.415440
0.465300
0.515150
0.563050
0.606060
0.644180
0.675460
0.700880
0.717500
0.729230
0.738030
0.744870
0.747800
0.748780
0.745850
0.740960
0.734120
0.725320
0.714570
0.701860
0.689150
0.675460
0.659820
0.641250
0.621700
0.600200
0.578690
0.555230
0.532750
0.510260
0.489740
0.470190
0.452590
0.438910
0.428150
0.417400
0.408600
0.400780
0.393940
0.389050
0.385140
0.381230
0.378300
0.375370
0.371460
0.369500
0.366570
0.363640
0.360700
0.355820
0.351910
0.347020
0.342130
0.337240
0.331380
0.326490
0.320630
0.314760
0.310850
0.306940
0.302050
0.297170
0.292280
0.287390
0.281520
0.276640
0.270770
0.264910
0.261000
0.261000
0.265880
0.276640
0.295210
0.324540
0.361680
0.406650
0.454550
0.504400
0.552300
0.596290
0.634410
0.666670
0.693060
0.710650
0.722390
0.733140
0.739980
0.743890
0.744870
0.742910
0.739000
0.733140
0.725320
0.715540
0.703810
0.692080
0.679370
0.664710
0.647120
0.627570
0.606060
0.581620
0.558160
0.534700
0.512220
0.491690
0.472140
0.454550
0.439880
0.429130
0.417400
0.408600
0.399800
0.392960
0.387100
0.383190
0.379280
0.375370
0.372430
0.368520
0.366570
0.363640
0.360700
0.356790
0.351910
0.348000
0.343110
0.337240
0.332360
0.327470
0.321600
0.315740
0.310850
0.305960
0.302050
0.298140
0.293260
0.288370
0.282500
0.277610
0.271750
0.265880
0.260020
0.256110
0.255130
0.258060
0.266860
0.284460
0.310850
0.347020
0.391010
0.438910
0.489740
0.537630
0.582600
0.622680
0.655910
0.683280
0.702830
0.715540
0.726300
0.734120
0.739000
0.739980
0.739000
0.735090
0.729230
0.721410
0.711630
0.699900
0.688170
0.674490
0.659820
0.642230
0.622680
0.602150
0.579670
0.557180
0.533720
0.511240
0.489740
0.469210
0.450640
0.435970
0.424240
0.412510
0.401760
0.392960
0.386120
0.380250
0.375370
0.371460
0.367550
0.364610
0.360700
0.358750
0.356790
0.353860
0.349950
0.346040
0.341150
0.336270
0.330400
0.325510
0.319650
0.313780
0.307920
0.301080
0.297170
0.293260
0.288370
0.283480
0.278590
0.272730
0.267840
0.261970
0.256110
0.249270
0.244380
0.242420
0.244380
0.252200
0.267840
0.292280
0.327470
0.370480
0.419350
0.470190
0.520040
0.566960
0.608990
0.644180
0.672530
0.692080
0.705770
0.717500
0.726300
0.731180
0.734120
0.733140
0.730210
0.725320
0.717500
0.708700
0.697950
0.686220
0.674490
0.658850
0.642230
0.622680
0.601170
0.578690
0.556210
0.532750
0.510260
0.488760
0.469210
0.453570
0.440860
0.429130
0.419350
0.410560
0.404690
0.399800
0.395890
0.392960
0.391010
0.390030
0.388070
0.386120
0.384160
0.382210
0.380250
0.377320
0.373410
0.368520
0.364610
0.359730
0.353860
0.348970
0.344090
0.338220
0.334310
0.330400
0.325510
0.320630
0.314760
0.309870
0.304010
0.298140
0.291300
0.285430
0.279570
0.275660
0.276640
0.282500
0.294230
0.315740
0.348000
0.388070
0.435000
0.484850
0.533720
0.580650
0.622680
0.657870
0.687190
0.707720
0.721410
0.733140
0.740960
0.745850
0.747800
0.746820
0.742910
0.737050
0.729230
0.720430
0.708700
0.695990
0.682310
0.668620
0.652000
0.633430
0.613880
0.591400
0.568910
0.545450
0.522970
0.500490
0.478980
0.459430
0.443790
0.430110
0.418380
0.406650
0.396870
0.389050
0.382210
0.377320
0.373410
0.369500
0.366570
0.363640
0.359730
0.357770
0.355820
0.351910
0.348000
0.344090
0.339200
0.334310
0.329420
0.324540
0.318670
0.313780
0.310850
0.309870
0.308900
0.304990
0.300100
0.295210
0.290320
0.285430
0.280550
0.275660
0.269790
0.263930
0.260020
0.258060
0.261000
0.268820
0.285430
0.310850
0.346040
0.389050
0.436950
0.486800
0.534700
0.580650
0.620720
0.653960
0.679370
0.696970
0.712610
0.725320
0.734120
0.739000
0.740960
0.739980
0.737050
0.731180
0.723360
0.714570
0.702830
0.691100
0.678400
0.663730
0.647120
0.628540
0.608990
0.587490
0.565980
0.543500
0.521990
0.501470
0.481920
0.465300
0.451610
0.438910
0.427170
0.416420
0.407620
0.400780
0.394920
0.390030
0.385140
0.381230
0.378300
0.374390
0.372430
0.370480
0.367550
0.363640
0.359730
0.355820
0.350930
0.346040
0.341150
0.336270
0.330400
0.325510
0.321600
0.317690
0.312810
0.307920
0.303030
0.298140
0.293260
0.288370
0.282500
0.276640
0.271750
0.266860
0.263930
0.265880
0.272730
0.286410
0.308900
0.340180
0.380250
0.426200
0.475070
0.522970
0.567940
0.608990
0.644180
0.669600
0.689150
0.705770
0.719450
0.729230
0.736070
0.739000
0.739000
0.737050
0.732160
0.725320
0.717500
0.707720
0.696970
0.685240
0.670580
0.654940
0.637340
0.617790
0.596290
0.574780
0.552300
0.529810
0.508310
0.487780
0.471160
0.457480
0.443790
0.431090
0.420330
0.410560
0.403710
0.397850
0.392960
0.389050
0.385140
0.382210
0.380250
0.378300
0.375370
0.372430
0.369500
0.365590
0.361680
0.356790
0.351910
0.347020
0.342130
0.337240
0.331380
0.326490
0.323560
0.318670
0.312810
0.307920
0.302050
0.296190
0.290320
0.284460
0.278590
0.271750
0.265880
0.262950
0.262950
0.267840
0.279570
0.301080
0.331380
0.370480
0.415440
0.464320
0.513200
0.559140
0.601170
0.636360
0.662760
0.682310
0.699900
0.713590
0.723360
0.730210
0.734120
0.734120
0.732160
0.728250
0.721410
0.712610
0.702830
0.692080
0.679370
0.664710
0.648090
0.630500
0.609970
0.588470
0.566960
0.543500
0.521020
0.498530
0.477030
0.460410
0.445750
0.431090
0.418380
0.407620
0.398830
0.391980
0.387100
0.383190
0.381230
0.379280
0.377320
0.376340
0.375370
0.373410
0.371460
0.368520
0.365590
0.362660
0.358750
0.354840
0.349950
0.346040
0.341150
0.336270
0.332360
0.328450
0.324540
0.320630
0.315740
0.311830
0.306940
0.302050
0.297170
0.292280
0.286410
0.282500
0.281520
0.285430
0.294230
0.311830
0.338220
0.373410
0.415440
0.463340
0.511240
0.559140
0.602150
0.640270
0.672530
0.695010
0.710650
0.725320
0.735090
0.742910
0.745850
0.746820
0.743890
0.739980
0.733140
0.724340
0.714570
0.702830
0.691100
0.676440
0.660800
0.642230
0.622680
0.601170
0.578690
0.556210
0.533720
0.511240
0.490710
0.471160
0.455520
0.442820
0.431090
0.420330
0.410560
0.402740
0.396870
0.391980
0.388070
0.384160
0.381230
0.377320
0.375370
0.372430
0.369500
0.365590
0.360700
0.355820
0.350930
0.346040
0.340180
0.334310
0.328450
0.322580
0.316720
0.312810
0.309870
0.304990
0.301080
0.296190
0.291300
0.286410
0.281520
0.275660
0.269790
0.263930
0.259040
0.257090
0.259040
0.265880
0.279570
0.303030
0.336270
0.377320
0.424240
0.474100
0.523950
0.569890
0.611930
0.647120
0.673510
0.692080
0.708700
0.722390
0.732160
0.738030
0.740960
0.740960
0.738030
0.732160
0.725320
0.716520
0.706740
0.695990
0.683280
0.669600
0.652980
0.635390
0.614860
0.594330
0.571850
0.548390
0.525900
0.503420
0.484850
0.469210
0.452590
0.437930
0.424240
0.413490
0.403710
0.395890
0.390030
0.385140
0.381230
0.378300
0.374390
0.372430
0.370480
0.368520
0.364610
0.361680
0.357770
0.353860
0.348970
0.344090
0.339200
0.334310
0.329420
0.325510
0.321600
0.317690
0.312810
0.306940
0.302050
0.297170
0.291300
0.286410
0.281520
0.275660
0.269790
0.263930
0.261000
0.261970
0.265880
0.275660
0.295210
0.323560
0.361680
0.405670
0.453570
0.502440
0.549360
0.592380
0.625610
0.651030
0.675460
0.695010
0.710650
0.722390
0.730210
0.735090
0.736070
0.735090
0.730210
0.724340
0.716520
0.707720
0.696970
0.685240
0.671550
0.655910
0.638320
0.618770
0.598240
0.576740
0.554250
0.531770
0.509290
0.490710
0.475070
0.458460
0.442820
0.429130
0.417400
0.407620
0.399800
0.392960
0.387100
0.383190
0.379280
0.376340
0.373410
0.371460
0.369500
0.366570
0.362660
0.359730
0.355820
0.350930
0.347020
0.342130
0.337240
0.332360
0.328450
0.324540
0.319650
0.314760
0.308900
0.304010
0.298140
0.293260
0.287390
0.282500
0.276640
0.270770
0.264910
0.261970
0.261000
0.262950
0.271750
0.287390
0.313780
0.348000
0.390030
0.436950
0.485830
0.533720
0.577710
0.612900
0.640270
0.666670
0.689150
0.706740
0.719450
0.729230
0.734120
0.736070
0.735090
0.732160
0.726300
0.717500
0.708700
0.697950
0.686220
0.671550
0.655910
0.638320
0.618770
0.597260
0.574780
0.552300
0.528840
0.506350
0.486800
0.469210
0.452590
0.435970
0.421310
0.409580
0.398830
0.391010
0.384160
0.379280
0.374390
0.371460
0.368520
0.365590
0.363640
0.361680
0.359730
0.356790
0.352880
0.348970
0.345060
0.340180
0.335290
0.330400
0.324540
0.319650
0.315740
0.310850
0.304990
0.299120
0.293260
0.288370
0.282500
0.276640
0.271750
0.265880
0.260020
0.254150
0.249270
0.248290
0.248290
0.255130
0.268820
0.293260
0.326490
0.369500
0.417400
0.468230
0.519060
0.566960
0.604110
0.633430
0.661780
0.686220
0.704790
0.719450
0.729230
0.735090
0.738030
0.737050
0.733140
0.727270
0.719450
0.710650
0.700880
0.689150
0.675460
0.659820
0.642230
0.623660
0.603130
0.582600
0.560120
0.538610
0.517110
0.498530
0.482890
0.467250
0.452590
0.439880
0.429130
0.419350
0.412510
0.406650
0.402740
0.398830
0.395890
0.393940
0.391980
0.390030
0.387100
0.384160
0.380250
0.376340
0.372430
0.367550
0.361680
0.356790
0.350930
0.345060
0.341150
0.337240
0.332360
0.326490
0.321600
0.315740
0.310850
0.304990
0.300100
0.294230
0.288370
0.281520
0.276640
0.272730
0.270770
0.273700
0.283480
0.302050
0.330400
0.367550
0.412510
0.461390
0.512220
0.560120
0.604110
0.638320
0.664710
0.689150
0.709680
0.725320
0.736070
0.742910
0.745850
0.746820
0.743890
0.739000
0.732160
0.723360
0.713590
0.702830
0.690130
0.675460
0.658850
0.641250
0.621700
0.600200
0.577710
0.555230
0.531770
0.509290
0.489740
0.473120
0.456500
0.440860
0.426200
0.413490
0.403710
0.394920
0.389050
0.383190
0.379280
0.375370
0.373410
0.371460
0.368520
0.366570
0.362660
0.359730
0.354840
0.350930
0.346040
0.341150
0.336270
0.330400
0.325510
0.320630
0.317690
0.312810
0.307920
0.303030
0.297170
0.292280
0.287390
0.282500
0.277610
0.271750
0.266860
0.261970
0.259040
0.256110
0.256110
0.261970
0.276640
0.300100
0.332360
0.374390
0.421310
0.471160
0.521020
0.567940
0.605080
0.634410
0.662760
0.687190
0.706740
0.721410
0.732160
0.738030
0.740960
0.740960
0.738030
0.732160
0.725320
0.716520
0.706740
0.695010
0.681330
0.665690
0.649070
0.629520
0.609970
0.587490
0.565000
0.542520
0.519060
0.499510
0.481920
0.464320
0.447700
0.432060
0.419350
0.408600
0.399800
0.391980
0.386120
0.382210
0.378300
0.375370
0.374390
0.371460
0.369500
0.366570
0.363640
0.359730
0.355820
0.351910
0.347020
0.342130
0.337240
0.332360
0.328450
0.325510
0.320630
0.315740
0.310850
0.304990
0.300100
0.294230
0.289350
0.283480
0.278590
0.272730
0.267840
0.264910
0.261000
0.260020
0.264910
0.275660
0.297170
0.328450
0.367550
0.413490
0.461390
0.510260
0.557180
0.594330
0.625610
0.653960
0.679370
0.699900
0.715540
0.727270
0.734120
0.738030
0.739000
0.737050
0.732160
0.726300
0.718480
0.709680
0.698920
0.686220
0.671550
0.655910
0.637340
0.617790
0.597260
0.574780
0.552300
0.532750
0.514170
0.494620
0.476050
0.458460
0.442820
0.429130
0.417400
0.407620
0.398830
0.392960
0.387100
0.383190
0.380250
0.378300
0.375370
0.373410
0.370480
0.366570
0.363640
0.359730
0.354840
0.349950
0.345060
0.340180
0.336270
0.332360
0.327470
0.321600
0.315740
0.309870
0.303030
0.297170
0.291300
0.285430
0.280550
0.274680
0.267840
0.262950
0.259040
0.255130
0.252200
0.254150
0.261970
0.279570
0.305960
0.342130
0.385140
0.434020
0.483870
0.526880
0.564030
0.601170
0.635390
0.663730
0.687190
0.704790
0.718480
0.727270
0.732160
0.734120
0.733140
0.730210
0.724340
0.717500
0.708700
0.698920
0.687190
0.673510
0.657870
0.640270
0.620720
0.599220
0.576740
0.554250
0.533720
0.515150
0.494620
0.475070
0.456500
0.439880
0.425220
0.413490
0.404690
0.397850
0.391980
0.389050
0.386120
0.385140
0.384160
0.383190
0.382210
0.380250
0.378300
0.375370
0.373410
0.369500
0.366570
0.362660
0.357770
0.354840
0.351910
0.348000
0.343110
0.339200
0.334310
0.329420
0.324540
0.319650
0.314760
0.310850
0.305960
0.300100
0.296190
0.293260
0.291300
0.292280
0.299120
0.314760
0.339200
0.373410
0.414470
0.461390
0.509290
0.556210
0.594330
0.626590
0.656890
0.683280
0.704790
0.722390
0.734120
0.741940
0.745850
0.746820
0.743890
0.739980
0.733140
0.724340
0.715540
0.704790
0.692080
0.678400
0.661780
0.644180
0.625610
0.604110
0.582600
0.560120
0.536660
0.517110
0.499510
0.480940
0.462370
0.446730
0.432060
0.419350
0.408600
0.399800
0.392960
0.387100
0.382210
0.378300
0.376340
0.373410
0.371460
0.368520
0.365590
0.361680
0.357770
0.353860
0.348970
0.344090
0.339200
0.333330
0.329420
0.325510
0.320630
0.314760
0.309870
0.304010
0.299120
0.293260
0.288370
0.283480
0.278590
0.273700
0.267840
0.263930
0.261000
0.258060
0.256110
0.260020
0.269790
0.289350
0.318670
0.355820
0.400780
0.449660
0.499510
0.541540
0.577710
0.613880
0.646140
0.674490
0.695990
0.713590
0.726300
0.734120
0.738030
0.739000
0.737050
0.733140
0.727270
0.719450
0.710650
0.699900
0.687190
0.672530
0.656890
0.639300
0.619750
0.599220
0.576740
0.554250
0.533720
0.515150
0.494620
0.475070
0.456500
0.439880
0.425220
0.413490
0.403710
0.394920
0.389050
0.384160
0.381230
0.379280
0.376340
0.374390
0.372430
0.369500
0.366570
0.363640
0.359730
0.355820
0.351910
0.348000
0.343110
0.339200
0.336270
0.332360
0.326490
0.321600
0.315740
0.310850
0.304990
0.300100
0.294230
0.289350
0.284460
0.280550
0.277610
0.272730
0.267840
0.264910
0.265880
0.273700
0.289350
0.313780
0.348000
0.390030
0.436950
0.484850
0.526880
0.564030
0.601170
0.634410
0.663730
0.688170
0.706740
0.720430
0.729230
0.735090
0.737050
0.736070
0.733140
0.728250
0.721410
0.713590
0.702830
0.692080
0.678400
0.663730
0.646140
0.627570
0.608020
0.586510
0.564030
0.544480
0.525900
0.506350
0.486800
0.469210
0.452590
0.437930
0.425220
0.414470
0.405670
0.398830
0.392960
0.389050
0.386120
0.383190
0.380250
0.377320
0.373410
0.370480
0.366570
0.363640
0.358750
0.354840
0.349950
0.345060
0.342130
0.338220
0.334310
0.329420
0.323560
0.317690
0.310850
0.306940
0.302050
0.297170
0.292280
0.287390
0.283480
0.279570
0.275660
0.270770
0.266860
0.266860
0.272730
0.287390
0.309870
0.343110
0.383190
0.429130
0.478010
0.520040
0.557180
0.595310
0.630500
0.660800
0.685240
0.704790
0.719450
0.729230
0.735090
0.737050
0.737050
0.733140
0.728250
0.722390
0.714570
0.704790
0.694040
0.681330
0.666670
0.651030
0.632450
0.612900
0.591400
0.569890
0.550340
0.531770
0.511240
0.491690
0.472140
0.454550
0.438910
0.425220
0.413490
0.403710
0.395890
0.389050
0.384160
0.381230
0.377320
0.374390
0.371460
0.367550
0.364610
0.360700
0.356790
0.352880
0.348000
0.344090
0.339200
0.335290
0.332360
0.327470
0.322580
0.317690
0.311830
0.305960
0.300100
0.294230
0.289350
0.283480
0.278590
0.273700
0.270770
0.265880
0.260020
0.256110
0.254150
0.258060
0.268820
0.289350
0.319650
0.358750
0.404690
0.453570
0.496580
0.535680
0.576740
0.613880
0.647120
0.673510
0.695010
0.711630
0.723360
0.730210
0.734120
0.735090
0.733140
0.728250
0.722390
0.714570
0.704790
0.694040
0.681330
0.667640
0.651030
0.633430
0.613880
0.593350
0.571850
0.552300
0.533720
0.513200
0.493650
0.475070
0.458460
0.443790
0.431090
0.419350
0.410560
0.405670
0.401760
0.398830
0.396870
0.395890
0.393940
0.392960
0.391010
0.389050
0.386120
0.383190
0.380250
0.376340
0.372430
0.368520
0.365590
0.361680
0.357770
0.352880
0.348000
0.343110
0.338220
0.333330
0.328450
0.323560
0.317690
0.312810
0.307920
0.304010
0.298140
0.293260
0.291300
0.293260
