0.201170
0.205080
0.220700
0.230470
0.220700
0.214840
0.220700
0.210940
0.214840
0.201170
0.205080
0.195310
0.189450
0.189450
0.195310
0.195310
0.189450
0.205080
0.224610
0.230470
0.246090
0.250000
0.259770
0.259770
0.255860
0.269530
0.224610
0.205080
0.195310
0.179690
0.185550
0.189450
0.175780
0.175780
0.175780
0.175780
0.160160
0.166020
0.130860
0.099609
0.230470
0.500000
0.814450
0.894530
0.583980
0.201170
0.041016
0.060547
0.076172
0.089844
0.099609
0.099609
0.111330
0.105470
0.111330
0.105470
0.115230
0.115230
0.111330
0.115230
0.121090
0.111330
0.115230
0.105470
0.111330
0.115230
0.115230
0.111330
0.105470
0.115230
0.121090
0.130860
0.144530
0.160160
0.169920
0.189450
0.201170
0.210940
0.210940
0.214840
0.205080
0.210940
0.201170
0.201170
0.195310
0.185550
0.179690
0.185550
0.175780
0.179690
0.175780
0.179690
0.175780
0.179690
0.175780
0.179690
0.195310
0.205080
0.220700
0.230470
0.246090
0.234380
0.240230
0.234380
0.214840
0.195310
0.189450
0.179690
0.175780
0.169920
0.169920
0.169920
0.175780
0.175780
0.175780
0.169920
0.134770
0.115230
0.255860
0.490230
0.785160
0.865230
0.580080
0.250000
0.115230
0.121090
0.105470
0.105470
0.105470
0.105470
0.105470
0.105470
0.105470
0.115230
0.121090
0.121090
0.115230
0.125000
0.121090
0.121090
0.111330
0.115230
0.105470
0.111330
0.115230
0.111330
0.115230
0.105470
0.111330
0.121090
0.134770
0.144530
0.160160
0.175780
0.179690
0.195310
0.201170
0.201170
0.201170
0.195310
0.201170
0.189450
0.195310
0.189450
0.201170
0.189450
0.201170
0.189450
0.189450
0.189450
0.189450
0.179690
0.189450
0.205080
0.214840
0.224610
0.230470
0.240230
0.230470
0.240230
0.230470
0.214840
0.195310
0.189450
0.185550
0.179690
0.175780
0.175780
0.175780
0.175780
0.175780
0.179690
0.169920
0.150390
0.130860
0.246090
0.474610
0.759770
0.843750
0.580080
0.275390
0.130860
0.134770
0.115230
0.115230
0.105470
0.105470
0.105470
0.105470
0.111330
0.115230
0.111330
0.121090
0.115230
0.121090
0.121090
0.125000
0.115230
0.115230
0.115230
0.115230
0.115230
0.111330
0.115230
0.111330
0.121090
0.115230
0.130860
0.144530
0.160160
0.169920
0.179690
0.185550
0.195310
0.189450
0.201170
0.201170
0.201170
0.189450
0.189450
0.185550
0.185550
0.175780
0.179690
0.185550
0.179690
0.179690
0.179690
0.185550
0.175780
0.195310
0.201170
0.214840
0.224610
0.234380
0.224610
0.224610
0.220700
0.205080
0.175780
0.175780
0.169920
0.175780
0.160160
0.156250
0.150390
0.160160
0.156250
0.160160
0.156250
0.144530
0.111330
0.195310
0.416020
0.695310
0.820310
0.619140
0.294920
0.121090
0.130860
0.115230
0.105470
0.099609
0.095703
0.089844
0.099609
0.105470
0.111330
0.105470
0.111330
0.111330
0.115230
0.111330
0.121090
0.111330
0.111330
0.105470
0.111330
0.105470
0.105470
0.099609
0.095703
0.105470
0.115230
0.130860
0.130860
0.144530
0.156250
0.175780
0.175780
0.189450
0.189450
0.201170
0.189450
0.189450
0.185550
0.189450
0.185550
0.189450
0.179690
0.185550
0.179690
0.185550
0.175780
0.175780
0.175780
0.185550
0.205080
0.214840
0.224610
0.230470
0.234380
0.224610
0.224610
0.205080
0.195310
0.169920
0.175780
0.160160
0.166020
0.160160
0.160160
0.160160
0.166020
0.160160
0.169920
0.156250
0.115230
0.169920
0.359380
0.615230
0.804690
0.679690
0.349610
0.125000
0.130860
0.125000
0.111330
0.115230
0.099609
0.099609
0.099609
0.105470
0.111330
0.115230
0.105470
0.115230
0.121090
0.115230
0.115230
0.115230
0.111330
0.111330
0.115230
0.105470
0.105470
0.115230
0.111330
0.105470
0.121090
0.115230
0.130860
0.150390
0.156250
0.166020
0.175780
0.175780
0.185550
0.185550
0.189450
0.179690
0.185550
0.189450
0.179690
0.185550
0.185550
0.189450
0.195310
0.189450
0.185550
0.179690
0.175780
0.195310
0.201170
0.214840
0.234380
0.246090
0.230470
0.224610
0.230470
0.214840
0.189450
0.185550
0.175780
0.175780
0.166020
0.169920
0.160160
0.156250
0.156250
0.169920
0.156250
0.150390
0.121090
0.111330
0.279300
0.515620
0.769530
0.789060
0.429690
0.160160
0.121090
0.125000
0.130860
0.099609
0.105470
0.089844
0.111330
0.105470
0.115230
0.115230
0.125000
0.115230
0.105470
0.111330
0.115230
0.121090
0.115230
0.125000
0.111330
0.111330
0.105470
0.111330
0.105470
0.115230
0.115230
0.125000
0.134770
0.144530
0.150390
0.166020
0.175780
0.179690
0.179690
0.185550
0.179690
0.185550
0.179690
0.185550
0.179690
0.175780
0.179690
0.175780
0.175780
0.185550
0.175780
0.175780
0.175780
0.175780
0.195310
0.201170
0.214840
0.230470
0.234380
0.240230
0.224610
0.220700
0.205080
0.189450
0.175780
0.169920
0.169920
0.156250
0.156250
0.156250
0.160160
0.169920
0.156250
0.166020
0.150390
0.121090
0.115230
0.320310
0.583980
0.789060
0.689450
0.355470
0.121090
0.140620
0.130860
0.121090
0.115230
0.111330
0.105470
0.111330
0.105470
0.115230
0.111330
0.125000
0.121090
0.125000
0.121090
0.125000
0.121090
0.125000
0.121090
0.115230
0.121090
0.121090
0.125000
0.121090
0.125000
0.130860
0.140620
0.150390
0.166020
0.160160
0.175780
0.185550
0.201170
0.210940
0.210940
0.205080
0.205080
0.210940
0.201170
0.205080
0.201170
0.205080
0.201170
0.201170
0.205080
0.201170
0.205080
0.201170
0.210940
0.220700
0.230470
0.250000
0.259770
0.255860
0.246090
0.255860
0.234380
0.220700
0.201170
0.195310
0.201170
0.185550
0.175780
0.179690
0.175780
0.179690
0.175780
0.179690
0.179690
0.156250
0.140620
0.240230
0.474610
0.740230
0.798830
0.509770
0.230470
0.134770
0.156250
0.144530
0.140620
0.134770
0.130860
0.125000
0.130860
0.125000
0.144530
0.140620
0.134770
0.144530
0.134770
0.140620
0.134770
0.150390
0.144530
0.130860
0.134770
0.134770
0.130860
0.140620
0.134770
0.134770
0.140620
0.150390
0.166020
0.185550
0.175780
0.195310
0.201170
0.210940
0.210940
0.214840
0.210940
0.214840
0.214840
0.214840
0.201170
0.205080
0.205080
0.205080
0.214840
0.205080
0.210940
0.201170
0.210940
0.220700
0.230470
0.240230
0.259770
0.269530
0.255860
0.250000
0.259770
0.224610
0.205080
0.195310
0.201170
0.185550
0.185550
0.175780
0.179690
0.185550
0.179690
0.175780
0.166020
0.156250
0.125000
0.189450
0.394530
0.669920
0.794920
0.595700
0.279300
0.125000
0.144530
0.150390
0.125000
0.125000
0.125000
0.130860
0.121090
0.121090
0.125000
0.121090
0.130860
0.125000
0.130860
0.130860
0.134770
0.130860
0.134770
0.130860
0.130860
0.130860
0.130860
0.134770
0.140620
0.130860
0.144530
0.150390
0.160160
0.150390
0.179690
0.175780
0.195310
0.201170
0.210940
0.214840
0.201170
0.210940
0.205080
0.214840
0.201170
0.205080
0.201170
0.210940
0.201170
0.201170
0.201170
0.210940
0.201170
0.210940
0.224610
0.246090
0.250000
0.259770
0.246090
0.246090
0.240230
0.230470
0.205080
0.205080
0.195310
0.185550
0.175780
0.175780
0.179690
0.175780
0.175780
0.175780
0.179690
0.175780
0.125000
0.115230
0.294920
0.544920
0.769530
0.775390
0.380860
0.144530
0.121090
0.150390
0.134770
0.130860
0.130860
0.121090
0.115230
0.125000
0.115230
0.130860
0.130860
0.130860
0.130860
0.125000
0.130860
0.125000
0.121090
0.130860
0.125000
0.130860
0.130860
0.130860
0.130860
0.130860
0.140620
0.134770
0.144530
0.175780
0.175780
0.189450
0.185550
0.201170
0.210940
0.205080
0.214840
0.210940
0.214840
0.210940
0.214840
0.210940
0.220700
0.201170
0.214840
0.205080
0.214840
0.201170
0.205080
0.210940
0.230470
0.240230
0.255860
0.259770
0.269530
0.250000
0.250000
0.234380
0.220700
0.205080
0.201170
0.185550
0.185550
0.179690
0.175780
0.169920
0.175780
0.179690
0.185550
0.179690
0.144530
0.125000
0.210940
0.429690
0.685550
0.775390
0.539060
0.255860
0.125000
0.156250
0.134770
0.134770
0.130860
0.125000
0.130860
0.130860
0.130860
0.130860
0.125000
0.130860
0.134770
0.134770
0.130860
0.134770
0.130860
0.130860
0.140620
0.130860
0.130860
0.130860
0.140620
0.130860
0.134770
0.140620
0.160160
0.166020
0.175780
0.179690
0.189450
0.201170
0.205080
0.210940
0.224610
0.214840
0.210940
0.224610
0.205080
0.210940
0.210940
0.205080
0.205080
0.214840
0.205080
0.210940
0.205080
0.220700
0.230470
0.240230
0.250000
0.265620
0.269530
0.265620
0.250000
0.259770
0.246090
0.214840
0.205080
0.210940
0.189450
0.195310
0.185550
0.185550
0.175780
0.185550
0.189450
0.179690
0.185550
0.130860
0.166020
0.349610
0.609380
0.789060
0.664060
0.339840
0.134770
0.150390
0.166020
0.140620
0.134770
0.134770
0.134770
0.125000
0.134770
0.140620
0.130860
0.134770
0.144530
0.150390
0.140620
0.144530
0.134770
0.140620
0.130860
0.134770
0.134770
0.140620
0.130860
0.144530
0.140620
0.150390
0.156250
0.175780
0.175780
0.185550
0.201170
0.195310
0.214840
0.224610
0.220700
0.220700
0.224610
0.220700
0.224610
0.214840
0.214840
0.210940
0.214840
0.205080
0.210940
0.214840
0.210940
0.214840
0.210940
0.240230
0.250000
0.269530
0.279300
0.269530
0.265620
0.259770
0.250000
0.224610
0.210940
0.210940
0.195310
0.189450
0.195310
0.195310
0.189450
0.175780
0.179690
0.185550
0.185550
0.144530
0.130860
0.279300
0.515620
0.753910
0.785160
0.445310
0.179690
0.125000
0.150390
0.144530
0.130860
0.134770
0.125000
0.140620
0.130860
0.130860
0.144530
0.130860
0.140620
0.144530
0.130860
0.130860
0.140620
0.130860
0.134770
0.130860
0.134770
0.130860
0.140620
0.134770
0.150390
0.134770
0.156250
0.160160
0.169920
0.179690
0.195310
0.201170
0.210940
0.214840
0.220700
0.224610
0.210940
0.224610
0.224610
0.224610
0.210940
0.210940
0.220700
0.201170
0.205080
0.220700
0.214840
0.220700
0.224610
0.240230
0.246090
0.269530
0.285160
0.269530
0.259770
0.265620
0.240230
0.224610
0.214840
0.205080
0.205080
0.189450
0.189450
0.179690
0.179690
0.189450
0.179690
0.175780
0.185550
0.144530
0.125000
0.230470
0.460940
0.705080
0.775390
0.515620
0.234380
0.121090
0.150390
0.140620
0.130860
0.125000
0.130860
0.130860
0.130860
0.130860
0.130860
0.130860
0.140620
0.144530
0.134770
0.140620
0.140620
0.144530
0.140620
0.144530
0.140620
0.134770
0.140620
0.134770
0.134770
0.144530
0.150390
0.160160
0.175780
0.185550
0.201170
0.205080
0.220700
0.230470
0.234380
0.240230
0.246090
0.234380
0.240230
0.234380
0.234380
0.230470
0.240230
0.240230
0.234380
0.246090
0.246090
0.240230
0.250000
0.255860
0.269530
0.291020
0.304690
0.304690
0.314450
0.300780
0.304690
0.285160
0.269530
0.255860
0.246090
0.240230
0.234380
0.234380
0.234380
0.246090
0.234380
0.246090
0.234380
0.224610
0.185550
0.175780
0.330080
0.570310
0.798830
0.830080
0.480470
0.214840
0.156250
0.201170
0.201170
0.195310
0.185550
0.189450
0.189450
0.185550
0.189450
0.195310
0.201170
0.195310
0.189450
0.179690
0.189450
0.189450
0.201170
0.189450
0.189450
0.189450
0.195310
0.195310
0.195310
0.179690
0.195310
0.205080
0.220700
0.214840
0.240230
0.246090
0.234380
0.265620
0.259770
0.265620
0.269530
0.265620
0.259770
0.269530
0.259770
0.265620
0.259770
0.265620
0.259770
0.265620
0.259770
0.269530
0.265620
0.269530
0.269530
0.294920
0.304690
0.314450
0.324220
0.335940
0.314450
0.314450
0.294920
0.275390
0.265620
0.259770
0.246090
0.240230
0.246090
0.240230
0.240230
0.234380
0.246090
0.230470
0.240230
0.185550
0.166020
0.300780
0.550780
0.824220
0.878910
0.544920
0.240230
0.150390
0.169920
0.169920
0.179690
0.175780
0.175780
0.175780
0.189450
0.185550
0.185550
0.179690
0.189450
0.189450
0.185550
0.185550
0.185550
0.189450
0.185550
0.189450
0.175780
0.185550
0.175780
0.175780
0.175780
0.189450
0.201170
0.205080
0.224610
0.224610
0.224610
0.240230
0.246090
0.265620
0.265620
0.255860
0.265620
0.255860
0.259770
0.230470
0.246090
0.230470
0.240230
0.224610
0.224610
0.220700
0.240230
0.246090
0.224610
0.246090
0.255860
0.265620
0.285160
0.300780
0.304690
0.291020
0.291020
0.294920
0.240230
0.234380
0.220700
0.224610
0.214840
0.205080
0.201170
0.195310
0.189450
0.201170
0.201170
0.185550
0.125000
0.160160
0.324220
0.619140
0.875000
0.900390
0.439450
0.140620
0.070312
0.085938
0.111330
0.130860
0.125000
0.134770
0.125000
0.130860
0.140620
0.130860
0.144530
0.140620
0.144530
0.134770
0.134770
0.130860
0.140620
0.130860
0.134770
0.130860
0.134770
0.125000
0.121090
0.130860
0.140620
0.150390
0.169920
0.179690
0.195310
0.205080
0.214840
0.220700
0.220700
0.224610
0.224610
0.214840
0.210940
0.214840
0.201170
0.201170
0.201170
0.195310
0.195310
0.189450
0.185550
0.185550
0.195310
0.189450
0.210940
0.224610
0.240230
0.250000
0.255860
0.246090
0.255860
0.230470
0.205080
0.201170
0.185550
0.179690
0.169920
0.160160
0.160160
0.156250
0.169920
0.160160
0.166020
0.140620
0.099609
0.140620
0.345700
0.634770
0.865230
0.750000
0.371090
0.099609
0.060547
0.076172
0.080078
0.089844
0.085938
0.089844
0.085938
0.099609
0.099609
0.111330
0.105470
0.105470
0.099609
0.105470
0.099609
0.105470
0.105470
0.099609
0.095703
0.099609
0.099609
0.105470
0.105470
0.105470
0.111330
0.121090
0.130860
0.140620
0.156250
0.166020
0.179690
0.185550
0.195310
0.189450
0.195310
0.189450
0.185550
0.175780
0.179690
0.175780
0.185550
0.185550
0.189450
0.185550
0.185550
0.179690
0.179690
0.175780
0.189450
0.201170
0.210940
0.224610
0.230470
0.234380
0.230470
0.240230
0.224610
0.201170
0.179690
0.179690
0.175780
0.169920
0.166020
0.160160
0.160160
0.160160
0.166020
0.166020
0.156250
0.125000
0.115230
0.310550
0.564450
0.833980
0.843750
0.455080
0.179690
0.125000
0.130860
0.105470
0.105470
0.099609
0.105470
0.105470
0.111330
0.115230
0.125000
0.121090
0.121090
0.125000
0.130860
0.130860
0.130860
0.125000
0.130860
0.121090
0.125000
0.121090
0.121090
0.125000
0.121090
0.130860
0.134770
0.150390
0.156250
0.175780
0.185550
0.195310
0.201170
0.210940
0.210940
0.220700
0.210940
0.214840
0.201170
0.205080
0.201170
0.201170
0.201170
0.201170
0.201170
0.201170
0.189450
0.189450
0.189450
0.195310
0.195310
0.205080
0.220700
0.234380
0.246090
0.246090
0.234380
0.230470
0.240230
0.201170
0.185550
0.175780
0.185550
0.175780
0.175780
0.166020
0.169920
0.166020
0.169920
0.166020
0.160160
0.125000
0.160160
0.330080
0.599610
0.820310
0.734380
0.400390
0.150390
0.130860
0.125000
0.115230
0.105470
0.111330
0.105470
0.111330
0.115230
0.115230
0.105470
0.115230
0.115230
0.125000
0.115230
0.125000
0.121090
0.121090
0.125000
0.115230
0.121090
0.111330
0.105470
0.111330
0.115230
0.111330
0.125000
0.130860
0.150390
0.156250
0.169920
0.169920
0.189450
0.189450
0.195310
0.195310
0.195310
0.189450
0.189450
0.189450
0.189450
0.185550
0.185550
0.175780
0.185550
0.175780
0.175780
0.189450
0.201170
0.210940
0.224610
0.240230
0.234380
0.220700
0.224610
0.214840
0.189450
0.175780
0.166020
0.175780
0.156250
0.156250
0.150390
0.150390
0.144530
0.150390
0.150390
0.150390
0.121090
0.105470
0.240230
0.490230
0.750000
0.804690
0.474610
0.195310
0.115230
0.130860
0.111330
0.095703
0.095703
0.099609
0.095703
0.099609
0.105470
0.099609
0.105470
0.099609
0.105470
0.105470
0.105470
0.111330
0.105470
0.111330
0.105470
0.105470
0.105470
0.105470
0.105470
0.105470
0.105470
0.115230
0.125000
0.130860
0.144530
0.169920
0.175780
0.185550
0.189450
0.195310
0.179690
0.185550
0.195310
0.195310
0.189450
0.185550
0.179690
0.189450
0.195310
0.185550
0.189450
0.179690
0.185550
0.195310
0.201170
0.220700
0.230470
0.234380
0.246090
0.234380
0.220700
0.201170
0.189450
0.175780
0.175780
0.166020
0.160160
0.166020
0.160160
0.156250
0.166020
0.156250
0.156250
0.144530
0.105470
0.189450
0.400390
0.675780
0.798830
0.605470
0.294920
0.125000
0.134770
0.130860
0.115230
0.111330
0.105470
0.111330
0.115230
0.115230
0.115230
0.130860
0.121090
0.125000
0.121090
0.130860
0.125000
0.125000
0.121090
0.125000
0.130860
0.121090
0.111330
0.115230
0.121090
0.125000
0.134770
0.134770
0.150390
0.156250
0.175780
0.179690
0.195310
0.195310
0.201170
0.201170
0.210940
0.201170
0.214840
0.205080
0.201170
0.201170
0.205080
0.201170
0.201170
0.189450
0.195310
0.195310
0.201170
0.214840
0.224610
0.240230
0.246090
0.246090
0.240230
0.246090
0.220700
0.205080
0.189450
0.189450
0.179690
0.175780
0.160160
0.169920
0.169920
0.175780
0.169920
0.169920
0.156250
0.140620
0.121090
0.240230
0.460940
0.734380
0.804690
0.515620
0.224610
0.130860
0.144530
0.134770
0.125000
0.115230
0.121090
0.125000
0.121090
0.121090
0.130860
0.130860
0.125000
0.130860
0.140620
0.130860
0.134770
0.134770
0.130860
0.125000
0.125000
0.130860
0.125000
0.130860
0.130860
0.134770
0.134770
0.150390
0.156250
0.169920
0.185550
0.195310
0.201170
0.205080
0.210940
0.220700
0.214840
0.220700
0.210940
0.205080
0.205080
0.205080
0.201170
0.205080
0.210940
0.201170
0.201170
0.201170
0.214840
0.230470
0.234380
0.246090
0.265620
0.259770
0.255860
0.250000
0.240230
0.214840
0.210940
0.201170
0.201170
0.179690
0.175780
0.175780
0.179690
0.175780
0.169920
0.175780
0.175780
0.150390
0.125000
0.224610
0.445310
0.720700
0.794920
0.525390
0.234380
0.134770
0.150390
0.140620
0.130860
0.125000
0.121090
0.130860
0.125000
0.130860
0.134770
0.130860
0.134770
0.140620
0.140620
0.130860
0.130860
0.130860
0.134770
0.140620
0.134770
0.130860
0.134770
0.125000
0.140620
0.125000
0.140620
0.150390
0.169920
0.169920
0.189450
0.210940
0.201170
0.205080
0.220700
0.214840
0.214840
0.210940
0.214840
0.210940
0.220700
0.224610
0.220700
0.210940
0.210940
0.214840
0.210940
0.214840
0.224610
0.240230
0.240230
0.265620
0.269530
0.265620
0.255860
0.259770
0.234380
0.224610
0.214840
0.210940
0.205080
0.201170
0.185550
0.189450
0.185550
0.195310
0.189450
0.201170
0.179690
0.150390
0.134770
0.294920
0.529300
0.775390
0.798830
0.429690
0.175780
0.130860
0.169920
0.140620
0.134770
0.130860
0.134770
0.125000
0.130860
0.140620
0.134770
0.144530
0.140620
0.144530
0.150390
0.144530
0.144530
0.134770
0.140620
0.144530
0.144530
0.140620
0.134770
0.140620
0.140620
0.160160
0.166020
0.156250
0.169920
0.189450
0.195310
0.205080
0.210940
0.214840
0.224610
0.224610
0.220700
0.224610
0.220700
0.214840
0.224610
0.214840
0.201170
0.210940
0.220700
0.214840
0.214840
0.220700
0.230470
0.246090
0.265620
0.269530
0.269530
0.269530
0.265620
0.259770
0.246090
0.224610
0.224610
0.210940
0.214840
0.201170
0.201170
0.195310
0.195310
0.189450
0.195310
0.201170
0.185550
0.140620
0.130860
0.314450
0.564450
0.785160
0.789060
0.404300
0.166020
0.140620
0.166020
0.150390
0.144530
0.134770
0.140620
0.144530
0.134770
0.150390
0.150390
0.156250
0.144530
0.150390
0.150390
0.144530
0.144530
0.140620
0.150390
0.140620
0.150390
0.150390
0.150390
0.134770
0.150390
0.150390
0.169920
0.175780
0.175780
0.179690
0.201170
0.224610
0.224610
0.230470
0.224610
0.230470
0.230470
0.224610
0.230470
0.220700
0.224610
0.224610
0.224610
0.220700
0.210940
0.220700
0.210940
0.230470
0.224610
0.234380
0.240230
0.265620
0.279300
0.275390
0.255860
0.269530
0.250000
0.234380
0.214840
0.205080
0.201170
0.205080
0.195310
0.185550
0.179690
0.201170
0.189450
0.185550
0.201170
0.144530
0.130860
0.250000
0.484380
0.740230
0.794920
0.480470
0.201170
0.125000
0.169920
0.144530
0.134770
0.130860
0.140620
0.130860
0.130860
0.140620
0.140620
0.134770
0.140620
0.130860
0.140620
0.144530
0.144530
0.134770
0.144530
0.140620
0.134770
0.134770
0.130860
0.144530
0.140620
0.144530
0.144530
0.166020
0.166020
0.185550
0.189450
0.201170
0.205080
0.220700
0.224610
0.224610
0.224610
0.230470
0.220700
0.220700
0.214840
0.220700
0.210940
0.201170
0.214840
0.205080
0.220700
0.205080
0.224610
0.234380
0.255860
0.269530
0.269530
0.269530
0.269530
0.259770
0.246090
0.224610
0.220700
0.201170
0.205080
0.189450
0.195310
0.179690
0.185550
0.179690
0.179690
0.175780
0.175780
0.140620
0.121090
0.246090
0.464840
0.720700
0.779300
0.484380
0.205080
0.134770
0.150390
0.150390
0.130860
0.125000
0.115230
0.125000
0.130860
0.134770
0.125000
0.140620
0.130860
0.140620
0.134770
0.134770
0.144530
0.140620
0.130860
0.134770
0.144530
0.134770
0.134770
0.130860
0.140620
0.144530
0.150390
0.144530
0.169920
0.175780
0.201170
0.201170
0.220700
0.214840
0.224610
0.224610
0.230470
0.214840
0.220700
0.224610
0.220700
0.214840
0.205080
0.201170
0.210940
0.214840
0.205080
0.214840
0.224610
0.230470
0.240230
0.259770
0.269530
0.285160
0.269530
0.269530
0.255860
0.240230
0.214840
0.205080
0.201170
0.201170
0.189450
0.185550
0.175780
0.179690
0.195310
0.185550
0.175780
0.156250
0.121090
0.214840
0.435550
0.695310
0.769530
0.544920
0.246090
0.130860
0.156250
0.144530
0.144530
0.125000
0.130860
0.130860
0.140620
0.144530
0.134770
0.140620
0.140620
0.134770
0.150390
0.150390
0.130860
0.144530
0.150390
0.144530
0.150390
0.144530
0.144530
0.150390
0.134770
0.144530
0.150390
0.160160
0.169920
0.185550
0.195310
0.201170
0.201170
0.220700
0.224610
0.220700
0.224610
0.224610
0.224610
0.220700
0.224610
0.210940
0.201170
0.205080
0.210940
0.201170
0.210940
0.201170
0.220700
0.230470
0.240230
0.255860
0.275390
0.269530
0.259770
0.255860
0.246090
0.220700
0.205080
0.201170
0.195310
0.179690
0.175780
0.175780
0.189450
0.179690
0.185550
0.179690
0.175780
0.156250
0.125000
0.214840
0.439450
0.695310
0.765620
0.525390
0.240230
0.121090
0.144530
0.144530
0.130860
0.130860
0.130860
0.125000
0.130860
0.130860
0.125000
0.121090
0.130860
0.140620
0.140620
0.140620
0.130860
0.134770
0.140620
0.130860
0.130860
0.134770
0.130860
0.130860
0.144530
0.140620
0.150390
0.156250
0.175780
0.175780
0.201170
0.201170
0.210940
0.220700
0.224610
0.220700
0.224610
0.214840
0.224610
0.214840
0.220700
0.214840
0.214840
0.210940
0.214840
0.224610
0.210940
0.224610
0.220700
0.234380
0.250000
0.255860
0.269530
0.279300
0.259770
0.259770
0.269530
0.246090
0.214840
0.205080
0.201170
0.185550
0.179690
0.189450
0.175780
0.169920
0.179690
0.175780
0.175780
0.166020
0.125000
0.166020
0.324220
0.574220
0.769530
0.660160
0.345700
0.115230
0.111330
0.150390
0.140620
0.121090
0.125000
0.130860
0.130860
0.130860
0.130860
0.134770
0.134770
0.130860
0.130860
0.134770
0.130860
0.134770
0.130860
0.140620
0.130860
0.134770
0.130860
0.130860
0.134770
0.140620
0.140620
0.150390
0.169920
0.179690
0.189450
0.201170
0.201170
0.214840
0.220700
0.224610
0.224610
0.220700
0.224610
0.214840
0.214840
0.214840
0.210940
0.205080
0.214840
0.214840
0.214840
0.220700
0.224610
0.230470
0.246090
0.255860
0.275390
0.275390
0.279300
0.269530
0.269530
0.246090
0.230470
0.214840
0.220700
0.205080
0.201170
0.201170
0.201170
0.201170
0.201170
0.201170
0.201170
0.195310
0.150390
0.185550
0.330080
0.574220
0.794920
0.798830
0.410160
0.166020
0.130860
0.175780
0.175780
0.175780
0.166020
0.166020
0.169920
0.166020
0.175780
0.175780
0.169920
0.175780
0.175780
0.169920
0.175780
0.169920
0.175780
0.169920
0.175780
0.175780
0.175780
0.175780
0.175780
0.175780
0.185550
0.179690
0.195310
0.201170
0.220700
0.224610
0.230470
0.240230
0.246090
0.246090
0.250000
0.250000
0.250000
0.240230
0.246090
0.246090
0.240230
0.246090
0.246090
0.250000
0.246090
0.240230
0.246090
0.250000
0.250000
0.269530
0.279300
0.294920
0.300780
0.304690
0.294920
0.300780
0.291020
0.269530
0.240230
0.240230
0.230470
0.220700
0.220700
0.214840
0.224610
0.214840
0.224610
0.220700
0.224610
0.166020
0.144530
0.279300
0.529300
0.789060
0.833980
0.500000
0.214840
0.130860
0.160160
0.156250
0.166020
0.150390
0.156250
0.150390
0.156250
0.160160
0.160160
0.156250
0.160160
0.166020
0.160160
0.156250
0.166020
0.160160
0.156250
0.150390
0.160160
0.166020
0.156250
0.166020
0.166020
0.169920
0.175780
0.179690
0.189450
0.201170
0.214840
0.220700
0.224610
0.230470
0.230470
0.224610
0.234380
0.224610
0.246090
0.224610
0.214840
0.210940
0.224610
0.210940
0.214840
0.214840
0.224610
0.220700
0.224610
0.224610
0.240230
0.246090
0.265620
0.275390
0.279300
0.269530
0.275390
0.269530
0.250000
0.224610
0.224610
0.205080
0.201170
0.195310
0.189450
0.195310
0.179690
0.179690
0.189450
0.195310
0.150390
0.125000
0.220700
0.455080
0.740230
0.865230
0.628910
0.265620
0.076172
0.095703
0.105470
0.125000
0.105470
0.111330
0.115230
0.115230
0.125000
0.130860
0.130860
0.130860
0.134770
0.130860
0.134770
0.130860
0.140620
0.130860
0.134770
0.130860
0.134770
0.125000
0.140620
0.130860
0.140620
0.144530
0.156250
0.169920
0.195310
0.195310
0.205080
0.214840
0.220700
0.224610
0.224610
0.214840
0.214840
0.210940
0.214840
0.201170
0.201170
0.205080
0.201170
0.201170
0.195310
0.195310
0.201170
0.201170
0.201170
0.210940
0.220700
0.234380
0.246090
0.259770
0.255860
0.259770
0.265620
0.250000
0.220700
0.205080
0.195310
0.185550
0.179690
0.175780
0.175780
0.179690
0.185550
0.179690
0.175780
0.166020
0.121090
0.160160
0.355470
0.650390
0.875000
0.769530
0.390620
0.125000
0.085938
0.095703
0.105470
0.111330
0.105470
0.105470
0.105470
0.115230
0.111330
0.121090
0.115230
0.121090
0.121090
0.125000
0.115230
0.121090
0.111330
0.115230
0.111330
0.115230
0.105470
0.111330
0.111330
0.115230
0.115230
0.130860
0.134770
0.150390
0.169920
0.179690
0.185550
0.201170
0.201170
0.201170
0.201170
0.195310
0.189450
0.185550
0.189450
0.185550
0.185550
0.185550
0.185550
0.189450
0.189450
0.179690
0.179690
0.185550
0.201170
0.214840
0.230470
0.240230
0.246090
0.240230
0.234380
0.224610
0.210940
0.185550
0.179690
0.175780
0.175780
0.175780
0.166020
0.160160
0.156250
0.166020
0.166020
0.169920
0.130860
0.115230
0.246090
0.490230
0.775390
0.839840
0.529300
0.240230
0.125000
0.130860
0.111330
0.105470
0.089844
0.095703
0.105470
0.105470
0.115230
0.111330
0.115230
0.115230
0.121090
0.115230
0.115230
0.111330
0.115230
0.105470
0.115230
0.105470
0.111330
0.105470
0.111330
0.105470
0.115230
0.130860
0.134770
0.150390
0.166020
0.175780
0.185550
0.201170
0.205080
0.201170
0.201170
0.205080
0.195310
0.201170
0.195310
0.201170
0.195310
0.201170
0.195310
0.195310
0.189450
0.195310
0.185550
0.185550
0.195310
0.210940
0.220700
0.240230
0.246090
0.240230
0.240230
0.234380
0.220700
0.201170
0.185550
0.175780
0.179690
0.169920
0.169920
0.166020
0.166020
0.160160
0.175780
0.166020
0.156250
0.115230
0.169920
0.355470
0.640620
0.824220
0.699220
0.371090
0.140620
0.125000
0.130860
0.115230
0.111330
0.105470
0.105470
0.111330
0.105470
0.115230
0.121090
0.121090
0.115230
0.121090
0.121090
0.125000
0.121090
0.125000
0.115230
0.115230
0.121090
0.121090
0.111330
0.115230
0.105470
0.121090
0.125000
0.140620
0.150390
0.160160
0.175780
0.179690
0.185550
0.189450
0.201170
0.195310
0.189450
0.195310
0.189450
0.195310
0.189450
0.185550
0.195310
0.189450
0.195310
0.189450
0.195310
0.195310
0.195310
0.201170
0.220700
0.230470
0.246090
0.234380
0.230470
0.234380
0.220700
0.195310
0.179690
0.185550
0.169920
0.166020
0.156250
0.160160
0.156250
0.160160
0.160160
0.160160
0.156250
0.121090
0.111330
0.291020
0.539060
0.789060
0.804690
0.435550
0.169920
0.121090
0.130860
0.115230
0.105470
0.099609
0.105470
0.105470
0.105470
0.105470
0.111330
0.105470
0.115230
0.105470
0.115230
0.115230
0.121090
0.111330
0.111330
0.105470
0.115230
0.105470
0.105470
0.105470
0.111330
0.111330
0.121090
0.130860
0.140620
0.160160
0.166020
0.175780
0.189450
0.195310
0.185550
0.195310
0.189450
0.189450
0.185550
0.189450
0.185550
0.189450
0.189450
0.201170
0.195310
0.189450
0.179690
0.195310
0.195310
0.210940
0.214840
0.230470
0.234380
0.230470
0.230470
0.224610
0.210940
0.189450
0.169920
0.166020
0.175780
0.160160
0.166020
0.156250
0.160160
0.156250
0.160160
0.160160
0.150390
0.105470
0.144530
0.324220
0.595700
0.785160
0.679690
0.349610
0.134770
0.125000
0.134770
0.115230
0.105470
0.105470
0.095703
0.105470
0.105470
0.111330
0.105470
0.111330
0.115230
0.115230
0.115230
0.121090
0.111330
0.115230
0.105470
0.111330
0.105470
0.111330
0.105470
0.115230
0.105470
0.115230
0.130860
0.144530
0.150390
0.160160
0.169920
0.175780
0.185550
0.189450
0.195310
0.185550
0.195310
0.195310
0.185550
0.179690
0.179690
0.185550
0.179690
0.179690
0.189450
0.175780
0.185550
0.189450
0.195310
0.201170
0.224610
0.234380
0.246090
0.224610
0.224610
0.240230
0.210940
0.195310
0.175780
0.175780
0.175780
0.160160
0.156250
0.156250
0.150390
0.160160
0.160160
0.160160
0.144530
0.111330
0.105470
0.300780
0.560550
0.785160
0.695310
0.371090
0.144530
0.125000
0.134770
0.115230
0.099609
0.095703
0.105470
0.089844
0.105470
0.105470
0.111330
0.105470
0.111330
0.115230
0.111330
0.105470
0.105470
0.111330
0.105470
0.111330
0.111330
0.105470
0.105470
0.111330
0.125000
0.121090
0.130860
0.134770
0.150390
0.156250
0.169920
0.175780
0.185550
0.189450
0.195310
0.201170
0.195310
0.201170
0.195310
0.201170
0.189450
0.185550
0.179690
0.185550
0.189450
0.179690
0.189450
0.185550
0.201170
0.210940
0.220700
0.240230
0.246090
0.250000
0.240230
0.234380
0.240230
0.210940
0.195310
0.179690
0.189450
0.175780
0.169920
0.175780
0.175780
0.166020
0.175780
0.169920
0.175780
0.134770
0.115230
0.234380
0.480470
0.734380
0.789060
0.474610
0.205080
0.125000
0.140620
0.125000
0.115230
0.121090
0.111330
0.121090
0.105470
0.121090
0.115230
0.125000
0.130860
0.125000
0.130860
0.125000
0.121090
0.130860
0.125000
0.121090
0.130860
0.130860
0.134770
0.130860
0.130860
0.130860
0.134770
0.144530
0.156250
0.175780
0.185550
0.195310
0.201170
0.210940
0.214840
0.210940
0.201170
0.210940
0.210940
0.205080
0.210940
0.205080
0.205080
0.201170
0.201170
0.195310
0.205080
0.201170
0.205080
0.210940
0.224610
0.234380
0.250000
0.259770
0.250000
0.250000
0.234380
0.220700
0.210940
0.195310
0.189450
0.179690
0.175780
0.175780
0.169920
0.169920
0.169920
0.175780
0.179690
0.169920
0.121090
0.115230
0.304690
0.560550
0.775390
0.699220
0.384770
0.140620
0.115230
0.150390
0.134770
0.125000
0.125000
0.111330
0.121090
0.130860
0.121090
0.125000
0.130860
0.125000
0.130860
0.130860
0.130860
0.125000
0.130860
0.125000
0.125000
0.121090
0.115230
0.130860
0.125000
0.130860
0.125000
0.140620
0.150390
0.156250
0.166020
0.189450
0.189450
0.201170
0.205080
0.214840
0.210940
0.205080
0.205080
0.201170
0.201170
0.210940
0.201170
0.201170
0.189450
0.195310
0.201170
0.201170
0.201170
0.201170
0.214840
0.224610
0.234380
0.250000
0.265620
0.259770
0.265620
0.240230
0.230470
0.205080
0.195310
0.195310
0.179690
0.175780
0.179690
0.175780
0.175780
0.175780
0.175780
0.169920
0.166020
0.121090
0.115230
0.304690
0.564450
0.779300
0.699220
0.375000
0.130860
0.115230
0.144530
0.130860
0.121090
0.121090
0.121090
0.125000
0.130860
0.130860
0.130860
0.134770
0.125000
0.134770
0.125000
0.130860
0.130860
0.140620
0.130860
0.130860
0.134770
0.134770
0.130860
0.130860
0.140620
0.144530
0.150390
0.156250
0.175780
0.179690
0.195310
0.201170
0.210940
0.214840
0.220700
0.214840
0.220700
0.224610
0.214840
0.205080
0.201170
0.210940
0.205080
0.210940
0.205080
0.201170
0.201170
0.201170
0.220700
0.224610
0.230470
0.234380
0.259770
0.269530
0.255860
0.255860
0.246090
0.230470
0.205080
0.201170
0.195310
0.185550
0.185550
0.185550
0.175780
0.175780
0.185550
0.179690
0.175780
0.160160
0.130860
0.185550
0.375000
0.654300
0.789060
0.609380
0.291020
0.105470
0.144530
0.144530
0.150390
0.130860
0.125000
0.125000
0.130860
0.125000
0.130860
0.130860
0.134770
0.140620
0.134770
0.140620
0.130860
0.144530
0.140620
0.130860
0.134770
0.134770
0.130860
0.130860
0.140620
0.144530
0.150390
0.156250
0.169920
0.179690
0.175780
0.205080
0.201170
0.220700
0.224610
0.234380
0.220700
0.224610
0.214840
0.224610
0.205080
0.210940
0.220700
0.214840
0.205080
0.214840
0.220700
0.210940
0.220700
0.214840
0.234380
0.240230
0.255860
0.265620
0.275390
0.265620
0.269530
0.259770
0.246090
0.220700
0.205080
0.201170
0.201170
0.185550
0.195310
0.185550
0.179690
0.185550
0.195310
0.185550
0.175780
0.125000
0.160160
0.324220
0.583980
0.789060
0.679690
0.375000
0.134770
0.125000
0.150390
0.150390
0.130860
0.125000
0.130860
0.140620
0.144530
0.130860
0.130860
0.144530
0.140620
0.150390
0.140620
0.134770
0.140620
0.140620
0.134770
0.140620
0.140620
0.144530
0.144530
0.134770
0.144530
0.140620
0.160160
0.166020
0.179690
0.185550
0.201170
0.214840
0.220700
0.220700
0.220700
0.220700
0.220700
0.220700
0.224610
0.220700
0.220700
0.224610
0.210940
0.214840
0.205080
0.220700
0.205080
0.220700
0.214840
0.224610
0.246090
0.255860
0.265620
0.275390
0.269530
0.269530
0.265620
0.246090
0.224610
0.220700
0.201170
0.201170
0.185550
0.179690
0.185550
0.175780
0.189450
0.179690
0.185550
0.189450
0.140620
0.130860
0.291020
0.539060
0.765620
0.785160
0.410160
0.144530
0.111330
0.150390
0.140620
0.130860
0.134770
0.130860
0.134770
0.130860
0.134770
0.134770
0.150390
0.140620
0.134770
0.144530
0.134770
0.134770
0.134770
0.130860
0.134770
0.144530
0.140620
0.144530
0.134770
0.144530
0.144530
0.150390
0.156250
0.175780
0.179690
0.195310
0.201170
0.214840
0.220700
0.214840
0.224610
0.220700
0.220700
0.220700
0.224610
0.214840
0.214840
0.214840
0.210940
0.224610
0.224610
0.220700
0.214840
0.220700
0.230470
0.240230
0.250000
0.265620
0.285160
0.269530
0.269530
0.275390
0.246090
0.224610
0.214840
0.205080
0.201170
0.185550
0.195310
0.201170
0.179690
0.189450
0.179690
0.189450
0.169920
0.130860
0.121090
0.304690
0.560550
0.775390
0.779300
0.400390
0.150390
0.111330
0.150390
0.130860
0.130860
0.130860
0.134770
0.130860
0.134770
0.134770
0.144530
0.134770
0.134770
0.140620
0.140620
0.140620
0.150390
0.134770
0.150390
0.134770
0.140620
0.134770
0.144530
0.140620
0.150390
0.150390
0.156250
0.169920
0.179690
0.195310
0.201170
0.201170
0.214840
0.220700
0.224610
0.214840
0.220700
0.220700
0.214840
0.220700
0.220700
0.224610
0.210940
0.214840
0.210940
0.214840
0.214840
0.224610
0.220700
0.230470
0.240230
0.250000
0.269530
0.285160
0.285160
0.275390
0.269530
0.265620
0.240230
0.224610
0.214840
0.210940
0.205080
0.205080
0.201170
0.201170
0.201170
0.201170
0.205080
0.201170
0.166020
0.144530
0.275390
0.505860
0.759770
0.804690
0.484380
0.205080
0.134770
0.175780
0.175780
0.169920
0.169920
0.160160
0.160160
0.169920
0.175780
0.179690
0.195310
0.179690
0.175780
0.189450
0.189450
0.189450
0.195310
0.185550
0.189450
0.195310
0.185550
0.189450
0.185550
0.201170
0.195310
0.205080
0.220700
0.230470
0.240230
0.246090
0.259770
0.275390
0.279300
0.275390
0.291020
0.279300
0.291020
0.279300
0.269530
0.275390
0.269530
0.269530
0.275390
0.269530
0.275390
0.269530
0.279300
0.275390
0.279300
0.291020
0.300780
0.304690
0.324220
0.335940
0.339840
0.330080
0.335940
0.314450
0.294920
0.275390
0.275390
0.265620
0.259770
0.250000
0.246090
0.246090
0.250000
0.250000
0.246090
0.246090
0.195310
0.189450
0.335940
0.589840
0.824220
0.855470
0.490230
0.220700
0.160160
0.201170
0.201170
0.201170
0.195310
0.201170
0.185550
0.189450
0.201170
0.201170
0.205080
0.201170
0.214840
0.205080
0.201170
0.201170
0.205080
0.189450
0.201170
0.201170
0.201170
0.205080
0.201170
0.201170
0.201170
0.201170
0.224610
0.224610
0.240230
0.255860
0.246090
0.250000
0.265620
0.259770
0.265620
0.250000
0.246090
0.265620
0.255860
0.246090
0.250000
0.246090
0.230470
0.240230
0.234380
0.240230
0.246090
0.250000
0.259770
0.255860
0.269530
0.279300
0.294920
0.310550
0.304690
0.304690
0.304690
0.291020
0.250000
0.240230
0.230470
0.224610
0.214840
0.220700
0.224610
0.210940
0.205080
0.210940
0.214840
0.189450
0.134770
0.125000
0.339840
0.628910
0.888670
0.900390
0.435550
0.134770
0.080078
0.105470
0.130860
0.130860
0.134770
0.134770
0.134770
0.150390
0.134770
0.150390
0.150390
0.160160
0.134770
0.140620
0.144530
0.150390
0.140620
0.130860
0.144530
0.144530
0.130860
0.140620
0.144530
0.140620
0.150390
0.160160
0.166020
0.179690
0.201170
0.205080
0.220700
0.224610
0.234380
0.240230
0.234380
0.224610
0.224610
0.224610
0.224610
0.201170
0.201170
0.201170
0.201170
0.201170
0.195310
0.201170
0.205080
0.201170
0.210940
0.220700
0.234380
0.246090
0.259770
0.265620
0.265620
0.269530
0.259770
0.234380
0.210940
0.201170
0.195310
0.201170
0.179690
0.179690
0.175780
0.175780
0.175780
0.185550
0.169920
0.125000
0.099609
0.240230
0.500000
0.798830
0.888670
0.583980
0.214840
0.060547
0.064453
0.085938
0.099609
0.099609
0.105470
0.099609
0.105470
0.105470
0.111330
0.111330
0.111330
0.105470
0.105470
0.099609
0.105470
0.099609
0.089844
0.085938
0.089844
0.089844
0.089844
0.085938
0.089844
0.089844
0.099609
0.111330
0.125000
0.134770
0.150390
0.160160
0.169920
0.175780
0.175780
0.179690
0.175780
0.175780
0.169920
0.175780
0.166020
0.166020
0.160160
0.166020
0.160160
0.169920
0.160160
0.169920
0.160160
0.166020
0.175780
0.185550
0.201170
0.214840
0.224610
0.214840
0.210940
0.220700
0.201170
0.175780
0.166020
0.156250
0.156250
0.150390
0.150390
0.150390
0.150390
0.150390
0.156250
0.150390
0.134770
0.095703
0.169920
0.371090
0.660160
0.833980
0.685550
0.330080
0.115230
0.105470
0.099609
0.095703
0.085938
0.080078
0.085938
0.089844
0.089844
0.099609
0.099609
0.105470
0.099609
0.105470
0.099609
0.105470
0.105470
0.105470
0.105470
0.105470
0.105470
0.099609
0.105470
0.105470
0.105470
0.111330
0.125000
0.134770
0.150390
0.166020
0.175780
0.179690
0.189450
0.195310
0.201170
0.201170
0.201170
0.195310
0.201170
0.195310
0.189450
0.185550
0.189450
0.179690
0.189450
0.189450
0.185550
0.179690
0.185550
0.189450
0.205080
0.220700
0.230470
0.240230
0.246090
0.234380
0.240230
0.230470
0.205080
0.189450
0.179690
0.185550
0.175780
0.169920
0.166020
0.166020
0.166020
0.175780
0.169920
0.166020
0.125000
0.121090
0.294920
0.560550
0.804690
0.824220
0.445310
0.175780
0.121090
0.130860
0.121090
0.111330
0.105470
0.105470
0.105470
0.111330
0.121090
0.121090
0.125000
0.121090
0.125000
0.121090
0.125000
0.121090
0.125000
0.115230
0.125000
0.115230
0.111330
0.115230
0.111330
0.111330
0.115230
0.121090
0.134770
0.150390
0.160160
0.175780
0.179690
0.189450
0.201170
0.201170
0.201170
0.201170
0.189450
0.195310
0.189450
0.201170
0.185550
0.189450
0.185550
0.185550
0.179690
0.185550
0.175780
0.185550
0.189450
0.205080
0.220700
0.234380
0.246090
0.240230
0.230470
0.230470
0.214840
0.195310
0.185550
0.179690
0.175780
0.166020
0.175780
0.166020
0.169920
0.175780
0.169920
0.166020
0.156250
0.111330
0.166020
0.349610
0.615230
0.810550
0.689450
0.371090
0.140620
0.144530
0.130860
0.121090
0.105470
0.111330
0.105470
0.111330
0.105470
0.121090
0.115230
0.121090
0.121090
0.125000
0.115230
0.125000
0.121090
0.115230
0.111330
0.115230
0.111330
0.111330
0.111330
0.111330
0.121090
0.115230
0.130860
0.144530
0.150390
0.156250
0.169920
0.175780
0.189450
0.189450
0.201170
0.201170
0.210940
0.201170
0.201170
0.195310
0.201170
0.189450
0.201170
0.201170
0.195310
0.201170
0.195310
0.189450
0.195310
0.210940
0.220700
0.234380
0.246090
0.246090
0.240230
0.240230
0.224610
0.205080
0.185550
0.189450
0.175780
0.175780
0.169920
0.166020
0.169920
0.175780
0.166020
0.169920
0.166020
0.130860
0.111330
0.246090
0.474610
0.740230
0.794920
0.500000
0.210940
0.130860
0.144530
0.130860
0.115230
0.115230
0.105470
0.105470
0.111330
0.115230
0.130860
0.121090
0.125000
0.125000
0.121090
0.125000
0.121090
0.125000
0.115230
0.115230
0.115230
0.121090
0.111330
0.115230
0.111330
0.125000
0.121090
0.134770
0.144530
0.160160
0.175780
0.175780
0.179690
0.189450
0.189450
0.195310
0.201170
0.201170
0.189450
0.201170
0.201170
0.201170
0.195310
0.195310
0.179690
0.179690
0.189450
0.201170
0.201170
0.201170
0.224610
0.230470
0.246090
0.250000
0.240230
0.234380
0.240230
0.201170
0.189450
0.175780
0.179690
0.175780
0.175780
0.175780
0.175780
0.169920
0.175780
0.169920
0.175780
0.150390
0.111330
0.205080
0.419920
0.699220
0.785160
0.564450
0.259770
0.130860
0.150390
0.140620
0.121090
0.115230
0.111330
0.115230
0.115230
0.115230
0.121090
0.125000
0.121090
0.134770
0.130860
0.134770
0.130860
0.125000
0.130860
0.130860
0.115230
0.121090
0.125000
0.121090
0.130860
0.121090
0.140620
0.140620
0.150390
0.166020
0.175780
0.179690
0.195310
0.189450
0.205080
0.205080
0.205080
0.201170
0.205080
0.210940
0.201170
0.205080
0.201170
0.205080
0.201170
0.201170
0.195310
0.201170
0.195310
0.214840
0.230470
0.246090
0.250000
0.265620
0.250000
0.246090
0.250000
0.224610
0.205080
0.205080
0.189450
0.201170
0.179690
0.175780
0.179690
0.175780
0.175780
0.175780
0.175780
0.169920
0.125000
0.121090
0.310550
0.560550
0.789060
0.714840
0.390620
0.134770
0.125000
0.150390
0.130860
0.125000
0.125000
0.121090
0.130860
0.125000
0.134770
0.134770
0.144530
0.130860
0.134770
0.134770
0.130860
0.140620
0.130860
0.134770
0.130860
0.130860
0.130860
0.130860
0.130860
0.140620
0.134770
0.144530
0.150390
0.169920
0.175780
0.195310
0.195310
0.201170
0.214840
0.210940
0.220700
0.210940
0.224610
0.214840
0.205080
0.210940
0.201170
0.201170
0.205080
0.210940
0.201170
0.201170
0.201170
0.214840
0.224610
0.230470
0.246090
0.265620
0.275390
0.269530
0.255860
0.259770
0.224610
0.205080
0.201170
0.205080
0.185550
0.189450
0.179690
0.185550
0.175780
0.179690
0.189450
0.175780
0.169920
0.130860
0.166020
0.359380
0.615230
0.798830
0.664060
0.339840
0.130860
0.156250
0.150390
0.140620
0.130860
0.125000
0.130860
0.134770
0.134770
0.130860
0.130860
0.134770
0.140620
0.144530
0.134770
0.140620
0.140620
0.144530
0.150390
0.134770
0.140620
0.134770
0.144530
0.144530
0.144530
0.134770
0.150390
0.160160
0.175780
0.179690
0.205080
0.205080
0.214840
0.214840
0.224610
0.224610
0.220700
0.224610
0.214840
0.224610
0.224610
0.214840
0.210940
0.214840
0.205080
0.220700
0.214840
0.220700
0.210940
0.224610
0.240230
0.255860
0.269530
0.285160
0.269530
0.259770
0.255860
0.246090
0.220700
0.214840
0.201170
0.201170
0.189450
0.189450
0.179690
0.189450
0.185550
0.175780
0.185550
0.166020
0.130860
0.195310
0.419920
0.675780
0.785160
0.554690
0.265620
0.125000
0.156250
0.140620
0.130860
0.130860
0.140620
0.130860
0.134770
0.130860
0.134770
0.130860
0.144530
0.144530
0.134770
0.140620
0.130860
0.144530
0.134770
0.140620
0.134770
0.140620
0.130860
0.140620
0.134770
0.144530
0.134770
0.160160
0.156250
0.175780
0.179690
0.201170
0.205080
0.214840
0.205080
0.220700
0.205080
0.220700
0.224610
0.214840
0.220700
0.214840
0.210940
0.205080
0.201170
0.201170
0.205080
0.210940
0.214840
0.220700
0.224610
0.240230
0.250000
0.265620
0.265620
0.250000
0.246090
0.240230
0.224610
0.205080
0.201170
0.195310
0.185550
0.189450
0.179690
0.189450
0.179690
0.175780
0.185550
0.189450
0.140620
0.125000
0.240230
0.460940
0.714840
0.779300
0.490230
0.214840
0.130860
0.156250
0.140620
0.144530
0.130860
0.134770
0.125000
0.130860
0.130860
0.134770
0.134770
0.130860
0.140620
0.134770
0.140620
0.134770
0.140620
0.134770
0.144530
0.134770
0.140620
0.134770
0.130860
0.130860
0.144530
0.150390
0.156250
0.160160
0.169920
0.179690
0.201170
0.201170
0.220700
0.224610
0.205080
0.214840
0.210940
0.205080
0.210940
0.220700
0.205080
0.205080
0.210940
0.205080
0.210940
0.201170
0.205080
0.224610
0.224610
0.240230
0.259770
0.269530
0.275390
0.265620
0.250000
0.250000
0.234380
0.220700
0.205080
0.201170
0.185550
0.179690
0.189450
0.179690
0.175780
0.179690
0.189450
0.175780
0.156250
0.121090
0.185550
0.375000
0.644530
0.779300
0.609380
0.291020
0.125000
0.144530
0.150390
0.125000
0.125000
0.125000
0.130860
0.130860
0.130860
0.125000
0.121090
0.134770
0.130860
0.140620
0.130860
0.125000
0.125000
0.134770
0.140620
0.134770
0.130860
0.140620
0.130860
0.140620
0.134770
0.144530
0.140620
0.160160
0.166020
0.189450
0.195310
0.210940
0.214840
0.224610
0.214840
0.224610
0.214840
0.210940
0.220700
0.210940
0.214840
0.195310
0.201170
0.210940
0.201170
0.210940
0.214840
0.201170
0.214840
0.224610
0.240230
0.259770
0.285160
0.265620
0.259770
0.259770
0.246090
0.220700
0.210940
0.205080
0.195310
0.179690
0.179690
0.175780
0.175780
0.179690
0.179690
0.175780
0.175780
0.134770
0.121090
0.265620
0.494140
0.750000
0.775390
0.425780
0.156250
0.105470
0.150390
0.144530
0.130860
0.115230
0.125000
0.130860
0.130860
0.130860
0.130860
0.125000
0.140620
0.130860
0.140620
0.144530
0.130860
0.121090
0.130860
0.130860
0.130860
0.134770
0.130860
0.144530
0.134770
0.150390
0.160160
0.169920
0.166020
0.179690
0.195310
0.205080
0.210940
0.220700
0.224610
0.224610
0.224610
0.220700
0.214840
0.220700
0.205080
0.210940
0.205080
0.214840
0.205080
0.201170
0.210940
0.220700
0.214840
0.224610
0.246090
0.255860
0.265620
0.275390
0.279300
0.265620
0.269530
0.240230
0.220700
0.214840
0.205080
0.201170
0.189450
0.185550
0.189450
0.179690
0.175780
0.175780
0.175780
0.169920
0.130860
0.175780
0.355470
0.615230
0.785160
0.625000
0.314450
0.111330
0.144530
0.150390
0.134770
0.130860
0.130860
0.121090
0.134770
0.144530
0.125000
0.140620
0.130860
0.134770
0.134770
0.140620
0.134770
0.140620
0.140620
0.140620
0.134770
0.140620
0.144530
0.140620
0.144530
0.150390
0.150390
0.160160
0.166020
0.185550
0.195310
0.201170
0.205080
0.220700
0.224610
0.220700
0.224610
0.220700
0.224610
0.214840
0.210940
0.210940
0.210940
0.205080
0.210940
0.210940
0.220700
0.214840
0.224610
0.230470
0.246090
0.250000
0.269530
0.279300
0.269530
0.269530
0.269530
0.246090
0.224610
0.214840
0.220700
0.210940
0.205080
0.201170
0.201170
0.205080
0.201170
0.210940
0.214840
0.195310
0.150390
0.210940
0.394530
0.654300
0.798830
0.650390
0.324220
0.140620
0.175780
0.189450
0.175780
0.169920
0.175780
0.175780
0.175780
0.179690
0.175780
0.179690
0.179690
0.185550
0.189450
0.185550
0.189450
0.185550
0.189450
0.185550
0.185550
0.189450
0.185550
0.179690
0.189450
0.185550
0.201170
0.201170
0.220700
0.230470
0.224610
0.240230
0.250000
0.265620
0.265620
0.269530
0.269530
0.265620
0.265620
0.269530
0.259770
0.265620
0.255860
0.265620
0.255860
0.265620
0.269530
0.269530
0.269530
0.279300
0.279300
0.294920
0.304690
0.320310
0.330080
0.324220
0.320310
0.314450
0.294920
0.265620
0.255860
0.259770
0.240230
0.234380
0.240230
0.230470
0.234380
0.234380
0.240230
0.230470
0.214840
0.156250
0.214840
0.416020
0.669920
0.833980
0.705080
0.355470
0.140620
0.160160
0.169920
0.175780
0.175780
0.175780
0.175780
0.175780
0.179690
0.189450
0.175780
0.179690
0.175780
0.185550
0.175780
0.175780
0.179690
0.185550
0.179690
0.179690
0.179690
0.189450
0.179690
0.179690
0.179690
0.189450
0.185550
0.205080
0.224610
0.220700
0.224610
0.240230
0.255860
0.259770
0.250000
0.246090
0.246090
0.246090
0.240230
0.240230
0.246090
0.234380
0.234380
0.234380
0.234380
0.224610
0.230470
0.230470
0.240230
0.250000
0.269530
0.279300
0.294920
0.304690
0.294920
0.294920
0.279300
0.255860
0.230470
0.224610
0.224610
0.214840
0.205080
0.201170
0.195310
0.201170
0.195310
0.201170
0.189450
0.144530
0.121090
0.255860
0.494140
0.785160
0.869140
0.570310
0.201170
0.064453
0.089844
0.105470
0.115230
0.111330
0.111330
0.115230
0.125000
0.121090
0.125000
0.121090
0.134770
0.121090
0.130860
0.125000
0.121090
0.125000
0.121090
0.115230
0.130860
0.115230
0.125000
0.111330
0.125000
0.130860
0.140620
0.140620
0.156250
0.175780
0.195310
0.205080
0.210940
0.220700
0.224610
0.214840
0.210940
0.220700
0.205080
0.201170
0.201170
0.185550
0.179690
0.189450
0.175780
0.179690
0.175780
0.185550
0.175780
0.189450
0.210940
0.220700
0.224610
0.246090
0.250000
0.246090
0.255860
0.234380
0.210940
0.195310
0.185550
0.169920
0.169920
0.160160
0.160160
0.156250
0.166020
0.160160
0.166020
0.150390
0.105470
0.095703
0.294920
0.589840
0.875000
0.904300
0.449220
0.121090
0.044922
0.060547
0.080078
0.089844
0.095703
0.099609
0.080078
0.099609
0.095703
0.105470
0.099609
0.099609
0.105470
0.105470
0.099609
0.105470
0.099609
0.095703
0.089844
0.089844
0.089844
0.089844
0.095703
0.099609
0.099609
0.105470
0.121090
0.134770
0.150390
0.160160
0.175780
0.185550
0.195310
0.201170
0.205080
0.201170
0.201170
0.195310
0.195310
0.185550
0.189450
0.179690
0.185550
0.175780
0.185550
0.179690
0.195310
0.201170
0.210940
0.220700
0.224610
0.234380
0.240230
0.240230
0.240230
0.220700
0.201170
0.189450
0.179690
0.175780
0.169920
0.169920
0.166020
0.175780
0.169920
0.175780
0.166020
0.156250
0.105470
0.160160
0.339840
0.625000
0.843750
0.750000
0.400390
0.150390
0.130860
0.121090
0.105470
0.105470
0.099609
0.095703
0.105470
0.105470
0.111330
0.105470
0.115230
0.115230
0.115230
0.111330
0.111330
0.111330
0.115230
0.111330
0.115230
0.105470
0.115230
0.105470
0.111330
0.111330
0.115230
0.130860
0.144530
0.150390
0.169920
0.179690
0.195310
0.205080
0.205080
0.205080
0.201170
0.205080
0.201170
0.195310
0.195310
0.201170
0.195310
0.201170
0.195310
0.195310
0.189450
0.195310
0.189450
0.195310
0.195310
0.201170
0.220700
0.234380
0.246090
0.246090
0.230470
0.230470
0.234380
0.210940
0.195310
0.175780
0.175780
0.169920
0.175780
0.169920
0.169920
0.169920
0.175780
0.160160
0.166020
0.134770
0.121090
0.246090
0.490230
0.759770
0.833980
0.535160
0.240230
0.130860
0.130860
0.121090
0.111330
0.099609
0.095703
0.105470
0.105470
0.115230
0.111330
0.115230
0.111330
0.115230
0.111330
0.121090
0.111330
0.111330
0.111330
0.111330
0.105470
0.111330
0.105470
0.105470
0.105470
0.111330
0.115230
0.130860
0.144530
0.150390
0.169920
0.175780
0.189450
0.195310
0.201170
0.201170
0.201170
0.201170
0.201170
0.195310
0.201170
0.195310
0.195310
0.189450
0.189450
0.185550
0.185550
0.189450
0.179690
0.189450
0.201170
0.220700
0.230470
0.246090
0.234380
0.234380
0.230470
0.205080
0.189450
0.185550
0.179690
0.175780
0.160160
0.166020
0.160160
0.166020
0.160160
0.160160
0.156250
0.144530
0.105470
0.166020
0.345700
0.619140
0.810550
0.685550
0.359380
0.134770
0.125000
0.130860
0.111330
0.099609
0.089844
0.089844
0.105470
0.099609
0.111330
0.105470
0.111330
0.105470
0.105470
0.105470
0.111330
0.105470
0.105470
0.105470
0.105470
0.099609
0.105470
0.095703
0.099609
0.105470
0.099609
0.121090
0.125000
0.150390
0.150390
0.166020
0.169920
0.185550
0.185550
0.195310
0.189450
0.189450
0.189450
0.195310
0.179690
0.185550
0.179690
0.185550
0.189450
0.189450
0.179690
0.189450
0.195310
0.205080
0.214840
0.240230
0.246090
0.234380
0.230470
0.234380
0.214840
0.189450
0.179690
0.175780
0.169920
0.160160
0.166020
0.160160
0.156250
0.156250
0.160160
0.156250
0.156250
0.111330
0.105470
0.275390
0.539060
0.779300
0.798830
0.416020
0.160160
0.125000
0.140620
0.121090
0.105470
0.105470
0.095703
0.105470
0.099609
0.105470
0.105470
0.111330
0.105470
0.111330
0.105470
0.115230
0.105470
0.111330
0.111330
0.105470
0.105470
0.105470
0.111330
0.105470
0.111330
0.115230
0.121090
0.134770
0.150390
0.150390
0.169920
0.175780
0.185550
0.189450
0.185550
0.189450
0.195310
0.195310
0.189450
0.195310
0.201170
0.189450
0.195310
0.179690
0.189450
0.189450
0.189450
0.189450
0.214840
0.210940
0.230470
0.246090
0.246090
0.240230
0.246090
0.224610
0.201170
0.185550
0.179690
0.179690
0.169920
0.160160
0.160160
0.166020
0.169920
0.166020
0.175780
0.169920
0.130860
0.105470
0.230470
0.445310
0.714840
0.789060
0.525390
0.230470
0.125000
0.140620
0.125000
0.105470
0.105470
0.099609
0.105470
0.105470
0.111330
0.105470
0.111330
0.115230
0.115230
0.111330
0.125000
0.105470
0.115230
0.111330
0.111330
0.111330
0.105470
0.115230
0.115230
0.121090
0.125000
0.125000
0.134770
0.140620
0.160160
0.169920
0.166020
0.179690
0.195310
0.201170
0.189450
0.201170
0.195310
0.201170
0.201170
0.201170
0.189450
0.195310
0.201170
0.195310
0.201170
0.201170
0.195310
0.201170
0.205080
0.220700
0.240230
0.255860
0.250000
0.246090
0.246090
0.230470
0.214840
0.195310
0.195310
0.179690
0.175780
0.169920
0.175780
0.166020
0.169920
0.175780
0.175780
0.169920
0.140620
0.125000
0.246090
0.470700
0.734380
0.794920
0.494140
0.205080
0.121090
0.140620
0.130860
0.111330
0.105470
0.111330
0.105470
0.111330
0.115230
0.121090
0.115230
0.125000
0.130860
0.130860
0.125000
0.130860
0.125000
0.130860
0.125000
0.115230
0.125000
0.121090
0.125000
0.125000
0.130860
0.130860
0.140620
0.150390
0.160160
0.166020
0.175780
0.185550
0.201170
0.205080
0.210940
0.201170
0.205080
0.205080
0.210940
0.201170
0.201170
0.201170
0.195310
0.201170
0.201170
0.201170
0.195310
0.205080
0.224610
0.240230
0.250000
0.259770
0.255860
0.246090
0.246090
0.230470
0.210940
0.201170
0.185550
0.189450
0.175780
0.179690
0.175780
0.179690
0.166020
0.169920
0.169920
0.169920
0.121090
0.111330
0.294920
0.539060
0.775390
0.785160
0.416020
0.166020
0.130860
0.134770
0.130860
0.121090
0.125000
0.115230
0.121090
0.111330
0.125000
0.121090
0.121090
0.125000
0.134770
0.140620
0.134770
0.125000
0.130860
0.130860
0.130860
0.121090
0.130860
0.125000
0.130860
0.134770
0.130860
0.140620
0.156250
0.169920
0.175780
0.185550
0.189450
0.201170
0.205080
0.214840
0.220700
0.210940
0.214840
0.210940
0.220700
0.214840
0.214840
0.214840
0.201170
0.205080
0.210940
0.205080
0.201170
0.214840
0.224610
0.240230
0.259770
0.265620
0.269530
0.250000
0.246090
0.224610
0.220700
0.201170
0.205080
0.195310
0.179690
0.175780
0.175780
0.179690
0.175780
0.179690
0.175780
0.169920
0.134770
0.121090
0.279300
0.509770
0.765620
0.789060
0.429690
0.166020
0.121090
0.150390
0.130860
0.125000
0.111330
0.111330
0.111330
0.115230
0.121090
0.115230
0.125000
0.115230
0.125000
0.125000
0.121090
0.125000
0.121090
0.115230
0.125000
0.121090
0.125000
0.125000
0.125000
0.121090
0.130860
0.144530
0.150390
0.156250
0.169920
0.166020
0.185550
0.195310
0.214840
0.214840
0.210940
0.205080
0.210940
0.214840
0.201170
0.201170
0.201170
0.195310
0.201170
0.195310
0.201170
0.189450
0.201170
0.205080
0.220700
0.246090
0.265620
0.269530
0.246090
0.246090
0.250000
0.230470
0.214840
0.201170
0.201170
0.195310
0.179690
0.175780
0.175780
0.179690
0.169920
0.175780
0.169920
0.156250
0.115230
0.160160
0.345700
0.609380
0.785160
0.634770
0.330080
0.115230
0.140620
0.130860
0.130860
0.125000
0.125000
0.115230
0.115230
0.125000
0.130860
0.130860
0.134770
0.121090
0.125000
0.125000
0.134770
0.130860
0.121090
0.134770
0.130860
0.125000
0.130860
0.134770
0.125000
0.130860
0.144530
0.150390
0.166020
0.169920
0.175780
0.189450
0.201170
0.214840
0.210940
0.220700
0.210940
0.210940
0.205080
0.210940
0.201170
0.214840
0.210940
0.201170
0.201170
0.210940
0.205080
0.214840
0.220700
0.230470
0.240230
0.234380
0.269530
0.275390
0.269530
0.255860
0.250000
0.240230
0.220700
0.201170
0.210940
0.201170
0.189450
0.175780
0.179690
0.175780
0.189450
0.175780
0.179690
0.166020
0.125000
0.169920
0.371090
0.634770
0.785160
0.615230
0.304690
0.125000
0.150390
0.150390
0.134770
0.134770
0.130860
0.125000
0.125000
0.125000
0.130860
0.134770
0.140620
0.144530
0.130860
0.121090
0.134770
0.140620
0.130860
0.130860
0.130860
0.125000
0.130860
0.134770
0.134770
0.130860
0.134770
0.150390
0.156250
0.169920
0.185550
0.201170
0.201170
0.201170
0.214840
0.220700
0.214840
0.205080
0.214840
0.224610
0.214840
0.220700
0.205080
0.201170
0.201170
0.201170
0.201170
0.205080
0.201170
0.224610
0.234380
0.255860
0.269530
0.275390
0.265620
0.255860
0.240230
0.224610
0.210940
0.201170
0.189450
0.189450
0.185550
0.189450
0.175780
0.179690
0.185550
0.175780
0.175780
0.144530
0.130860
0.230470
0.460940
0.720700
0.785160
0.490230
0.210940
0.115230
0.150390
0.140620
0.134770
0.134770
0.134770
0.140620
0.140620
0.134770
0.140620
0.150390
0.150390
0.150390
0.150390
0.150390
0.150390
0.150390
0.150390
0.160160
0.156250
0.166020
0.160160
0.175780
0.166020
0.175780
0.175780
0.201170
0.201170
0.224610
0.224610
0.240230
0.246090
0.255860
0.259770
0.259770
0.265620
0.265620
0.259770
0.265620
0.259770
0.269530
0.265620
0.259770
0.265620
0.255860
0.269530
0.259770
0.269530
0.279300
0.294920
0.304690
0.320310
0.324220
0.330080
0.314450
0.320310
0.294920
0.279300
0.259770
0.255860
0.250000
0.246090
0.240230
0.246090
0.246090
0.246090
0.240230
0.246090
0.250000
0.179690
0.234380
0.435550
0.699220
0.849610
0.695310
0.355470
0.160160
0.185550
0.201170
0.201170
0.201170
0.195310
0.201170
0.201170
0.201170
0.205080
0.201170
0.201170
0.201170
0.201170
0.205080
0.201170
0.201170
0.201170
0.201170
0.201170
0.205080
0.201170
0.205080
0.210940
0.195310
0.205080
0.210940
0.230470
0.230470
0.246090
0.255860
0.269530
0.269530
0.269530
0.265620
0.269530
0.279300
0.265620
0.265620
0.269530
0.265620
0.259770
0.246090
0.246090
0.265620
0.259770
0.265620
0.250000
0.269530
0.275390
0.294920
0.294920
0.310550
0.314450
0.300780
0.294920
0.310550
0.279300
0.250000
0.246090
0.246090
0.234380
0.224610
0.214840
0.224610
0.224610
0.224610
0.214840
0.220700
0.166020
0.140620
0.291020
0.544920
0.833980
0.894530
0.564450
0.220700
0.105470
0.125000
0.144530
0.156250
0.160160
0.150390
0.160160
0.150390
0.144530
0.156250
0.160160
0.156250
0.156250
0.150390
0.160160
0.156250
0.156250
0.150390
0.150390
0.144530
0.140620
0.150390
0.150390
0.166020
0.156250
0.160160
0.169920
0.189450
0.201170
0.220700
0.220700
0.230470
0.224610
0.240230
0.246090
0.234380
0.246090
0.224610
0.230470
0.214840
0.220700
0.214840
0.210940
0.205080
0.210940
0.205080
0.205080
0.210940
0.224610
0.234380
0.255860
0.269530
0.275390
0.279300
0.275390
0.279300
0.269530
0.240230
0.224610
0.205080
0.205080
0.195310
0.189450
0.185550
0.189450
0.185550
0.179690
0.175780
0.156250
0.105470
0.160160
0.359380
0.654300
0.884770
0.769530
0.375000
0.099609
0.064453
0.080078
0.099609
0.105470
0.111330
0.111330
0.111330
0.111330
0.121090
0.111330
0.115230
0.111330
0.115230
0.111330
0.111330
0.105470
0.099609
0.105470
0.095703
0.099609
0.099609
0.095703
0.095703
0.099609
0.095703
0.115230
0.121090
0.140620
0.150390
0.160160
0.169920
0.175780
0.175780
0.189450
0.185550
0.179690
0.185550
0.179690
0.175780
0.175780
0.175780
0.175780
0.179690
0.175780
0.179690
0.175780
0.179690
0.175780
0.185550
0.189450
0.205080
0.214840
0.224610
0.230470
0.230470
0.230470
0.224610
0.201170
0.189450
0.175780
0.175780
0.169920
0.160160
0.156250
0.160160
0.160160
0.160160
0.160160
0.156250
0.115230
0.105470
0.304690
0.580080
0.833980
0.843750
0.445310
0.175780
0.125000
0.111330
0.105470
0.105470
0.105470
0.105470
0.105470
0.099609
0.111330
0.105470
0.121090
0.111330
0.111330
0.115230
0.115230
0.121090
0.115230
0.125000
0.115230
0.121090
0.111330
0.121090
0.115230
0.130860
0.125000
0.130860
0.134770
0.156250
0.175780
0.185550
0.195310
0.205080
0.210940
0.214840
0.210940
0.210940
0.205080
0.210940
0.210940
0.210940
0.210940
0.210940
0.205080
0.201170
0.205080
0.201170
0.201170
0.201170
0.205080
0.214840
0.230470
0.246090
0.259770
0.240230
0.246090
0.240230
0.224610
0.201170
0.201170
0.189450
0.179690
0.175780
0.175780
0.175780
0.169920
0.179690
0.175780
0.179690
0.150390
0.130860
0.220700
0.449220
0.734380
0.830080
0.589840
0.279300
0.125000
0.134770
0.130860
0.121090
0.105470
0.111330
0.105470
0.115230
0.111330
0.121090
0.125000
0.121090
0.115230
0.121090
0.125000
0.121090
0.115230
0.115230
0.121090
0.115230
0.115230
0.111330
0.115230
0.111330
0.115230
0.121090
0.130860
0.140620
0.156250
0.166020
0.175780
0.179690
0.195310
0.195310
0.195310
0.201170
0.189450
0.185550
0.179690
0.189450
0.189450
0.195310
0.189450
0.195310
0.185550
0.189450
0.189450
0.201170
0.201170
0.220700
0.224610
0.240230
0.234380
0.234380
0.224610
0.230470
0.205080
0.189450
0.179690
0.179690
0.175780
0.175780
0.169920
0.175780
0.175780
0.175780
0.175780
0.169920
0.144530
0.125000
0.230470
0.455080
0.744140
0.820310
0.550780
0.246090
0.130860
0.140620
0.125000
0.115230
0.111330
0.105470
0.111330
0.115230
0.115230
0.121090
0.115230
0.130860
0.121090
0.125000
0.121090
0.125000
0.121090
0.125000
0.121090
0.130860
0.121090
0.125000
0.121090
0.130860
0.121090
0.130860
0.140620
0.150390
0.160160
0.175780
0.175780
0.195310
0.201170
0.205080
0.214840
0.210940
0.214840
0.205080
0.201170
0.201170
0.205080
0.201170
0.205080
0.201170
0.201170
0.201170
0.201170
0.201170
0.214840
0.224610
0.240230
0.246090
0.255860
0.246090
0.240230
0.230470
0.214840
0.201170
0.189450
0.195310
0.179690
0.175780
0.179690
0.175780
0.169920
0.175780
0.175780
0.175780
0.144530
0.125000
0.230470
0.470700
0.740230
0.810550
0.535160
0.250000
0.130860
0.150390
0.130860
0.121090
0.121090
0.121090
0.130860
0.121090
0.125000
0.130860
0.125000
0.130860
0.130860
0.121090
0.130860
0.121090
0.130860
0.121090
0.125000
0.130860
0.121090
0.115230
0.125000
0.121090
0.130860
0.130860
0.140620
0.150390
0.166020
0.175780
0.189450
0.195310
0.201170
0.205080
0.210940
0.205080
0.210940
0.205080
0.210940
0.205080
0.205080
0.210940
0.201170
0.205080
0.201170
0.201170
0.201170
0.210940
0.210940
0.224610
0.240230
0.255860
0.246090
0.246090
0.246090
0.240230
0.214840
0.205080
0.195310
0.185550
0.189450
0.175780
0.179690
0.169920
0.169920
0.166020
0.169920
0.175780
0.160160
0.115230
0.195310
0.400390
0.675780
0.798830
0.609380
0.291020
0.130860
0.150390
0.140620
0.130860
0.130860
0.125000
0.121090
0.130860
0.125000
0.130860
0.130860
0.130860
0.130860
0.130860
0.130860
0.134770
0.130860
0.134770
0.130860
0.140620
0.130860
0.140620
0.130860
0.140620
0.134770
0.144530
0.140620
0.156250
0.160160
0.179690
0.189450
0.201170
0.205080
0.210940
0.224610
0.214840
0.205080
0.201170
0.205080
0.201170
0.210940
0.201170
0.205080
0.201170
0.195310
0.201170
0.201170
0.201170
0.210940
0.224610
0.230470
0.255860
0.265620
0.250000
0.246090
0.246090
0.234380
0.214840
0.205080
0.195310
0.189450
0.179690
0.175780
0.179690
0.175780
0.185550
0.175780
0.179690
0.169920
0.134770
0.125000
0.310550
0.570310
0.789060
0.708980
0.394530
0.156250
0.134770
0.150390
0.134770
0.134770
0.130860
0.121090
0.130860
0.130860
0.130860
0.134770
0.134770
0.140620
0.130860
0.134770
0.130860
0.140620
0.134770
0.140620
0.130860
0.140620
0.130860
0.130860
0.125000
0.134770
0.140620
0.150390
0.156250
0.166020
0.175780
0.189450
0.195310
0.201170
0.210940
0.205080
0.210940
0.205080
0.214840
0.201170
0.210940
0.201170
0.201170
0.201170
0.201170
0.201170
0.205080
0.201170
0.201170
0.201170
0.220700
0.234380
0.255860
0.259770
0.250000
0.240230
0.240230
0.224610
0.205080
0.201170
0.195310
0.201170
0.175780
0.175780
0.175780
0.175780
0.169920
0.169920
0.169920
0.166020
0.121090
0.111330
0.279300
0.539060
0.769530
0.785160
0.400390
0.160160
0.125000
0.156250
0.130860
0.121090
0.125000
0.115230
0.125000
0.130860
0.125000
0.121090
0.130860
0.130860
0.134770
0.125000
0.125000
0.134770
0.130860
0.125000
0.130860
0.125000
0.130860
0.125000
0.130860
0.130860
0.134770
0.140620
0.144530
0.156250
0.175780
0.185550
0.185550
0.195310
0.205080
0.210940
0.205080
0.210940
0.205080
0.214840
0.201170
0.210940
0.201170
0.205080
0.201170
0.205080
0.205080
0.201170
0.210940
0.201170
0.214840
0.234380
0.246090
0.259770
0.255860
0.250000
0.255860
0.250000
0.230470
0.210940
0.201170
0.185550
0.179690
0.185550
0.179690
0.175780
0.175780
0.169920
0.175780
0.175780
0.160160
0.125000
0.179690
0.371090
0.640620
0.789060
0.619140
0.304690
0.125000
0.144530
0.144530
0.134770
0.130860
0.130860
0.130860
0.130860
0.130860
0.130860
0.134770
0.140620
0.130860
0.134770
0.130860
0.134770
0.134770
0.130860
0.130860
0.134770
0.125000
0.134770
0.130860
0.130860
0.130860
0.134770
0.134770
0.150390
0.150390
0.175780
0.185550
0.195310
0.201170
0.210940
0.214840
0.210940
0.214840
0.210940
0.214840
0.210940
0.210940
0.210940
0.214840
0.205080
0.210940
0.214840
0.210940
0.214840
0.210940
0.230470
0.246090
0.250000
0.259770
0.269530
0.265620
0.255860
0.265620
0.234380
0.220700
0.205080
0.201170
0.201170
0.189450
0.195310
0.175780
0.179690
0.175780
0.185550
0.175780
0.150390
0.125000
0.230470
0.445310
0.714840
0.794920
0.535160
0.234380
0.134770
0.156250
0.144530
0.144530
0.134770
0.130860
0.125000
0.130860
0.140620
0.140620
0.140620
0.144530
0.140620
0.140620
0.134770
0.140620
0.130860
0.130860
0.134770
0.140620
0.130860
0.134770
0.134770
0.140620
0.134770
0.150390
0.160160
0.175780
0.185550
0.195310
0.201170
0.205080
0.214840
0.220700
0.224610
0.220700
0.224610
0.214840
0.224610
0.220700
0.210940
0.214840
0.224610
0.205080
0.214840
0.210940
0.210940
0.210940
0.224610
0.240230
0.246090
0.259770
0.255860
0.269530
0.259770
0.255860
0.240230
0.220700
0.205080
0.201170
0.189450
0.189450
0.179690
0.185550
0.175780
0.175780
0.179690
0.189450
0.179690
0.134770
0.130860
0.324220
0.583980
0.794920
0.679690
0.355470
0.134770
0.121090
0.160160
0.140620
0.134770
0.130860
0.134770
0.125000
0.134770
0.121090
0.130860
0.130860
0.140620
0.134770
0.140620
0.130860
0.144530
0.130860
0.130860
0.130860
0.144530
0.130860
0.134770
0.134770
0.130860
0.140620
0.150390
0.160160
0.156250
0.175780
0.189450
0.201170
0.201170
0.214840
0.214840
0.210940
0.220700
0.224610
0.214840
0.210940
0.205080
0.214840
0.214840
0.210940
0.201170
0.205080
0.205080
0.214840
0.210940
0.224610
0.240230
0.246090
0.255860
0.265620
0.269530
0.255860
0.259770
0.234380
0.220700
0.205080
0.201170
0.189450
0.179690
0.175780
0.175780
0.179690
0.179690
0.175780
0.179690
0.185550
0.130860
0.166020
0.339840
0.605470
0.789060
0.660160
0.330080
0.121090
0.144530
0.156250
0.144530
0.130860
0.121090
0.130860
0.134770
0.140620
0.134770
0.140620
0.130860
0.140620
0.134770
0.140620
0.140620
0.144530
0.150390
0.134770
0.140620
0.144530
0.140620
0.134770
0.140620
0.134770
0.150390
0.144530
0.166020
0.169920
0.179690
0.195310
0.214840
0.210940
0.224610
0.224610
0.224610
0.214840
0.224610
0.214840
0.224610
0.224610
0.220700
0.214840
0.224610
0.214840
0.220700
0.220700
0.224610
0.224610
0.234380
0.246090
0.250000
0.275390
0.291020
0.294920
0.269530
0.259770
0.240230
0.224610
0.220700
0.214840
0.201170
0.195310
0.201170
0.195310
0.185550
0.189450
0.175780
0.179690
0.169920
0.134770
0.160160
0.339840
0.605470
0.789060
0.660160
0.359380
0.130860
0.125000
0.150390
0.134770
0.130860
0.125000
0.130860
0.134770
0.130860
0.134770
0.144530
0.140620
0.134770
0.144530
0.140620
0.150390
0.134770
0.130860
0.140620
0.130860
0.130860
0.144530
0.140620
0.144530
0.130860
0.140620
0.150390
0.156250
0.166020
0.179690
0.175780
0.205080
0.210940
0.214840
0.214840
0.214840
0.220700
0.210940
0.201170
0.224610
0.214840
0.205080
0.214840
0.210940
0.210940
0.205080
0.210940
0.220700
0.210940
0.220700
0.234380
0.246090
0.259770
0.279300
0.269530
0.259770
0.265620
0.246090
0.224610
0.205080
0.201170
0.201170
0.195310
0.189450
0.185550
0.175780
0.185550
0.175780
0.179690
0.175780
0.140620
0.134770
0.314450
0.564450
0.779300
0.705080
0.380860
0.134770
0.115230
0.156250
0.140620
0.134770
0.134770
0.130860
0.125000
0.144530
0.144530
0.144530
0.134770
0.144530
0.134770
0.134770
0.144530
0.130860
0.140620
0.134770
0.140620
0.130860
0.144530
0.140620
0.144530
0.140620
0.144530
0.150390
0.150390
0.175780
0.179690
0.189450
0.201170
0.214840
0.224610
0.220700
0.214840
0.220700
0.224610
0.220700
0.224610
0.220700
0.224610
0.214840
0.210940
0.220700
0.205080
0.214840
0.220700
0.230470
0.224610
0.240230
0.250000
0.259770
0.279300
0.275390
0.250000
0.255860
0.246090
0.230470
0.214840
0.205080
0.195310
0.185550
0.185550
0.195310
0.189450
0.185550
0.185550
0.189450
0.179690
0.140620
0.160160
0.314450
0.564450
0.775390
0.695310
0.365230
0.134770
0.115230
0.150390
0.140620
0.134770
0.121090
0.125000
0.130860
0.130860
0.121090
0.134770
0.130860
0.134770
0.140620
0.130860
0.134770
0.130860
0.140620
0.130860
0.140620
0.130860
0.130860
0.134770
0.130860
0.130860
0.140620
0.144530
0.150390
0.160160
0.189450
0.185550
0.205080
0.210940
0.214840
0.210940
0.220700
0.205080
0.220700
0.214840
0.214840
0.210940
0.205080
0.201170
0.210940
0.201170
0.201170
0.201170
0.201170
0.201170
0.210940
0.230470
0.246090
0.259770
0.269530
0.269530
0.255860
0.259770
0.246090
0.224610
0.205080
0.205080
0.201170
0.189450
0.179690
0.189450
0.179690
0.175780
0.175780
0.175780
0.169920
0.140620
0.130860
0.294920
0.525390
0.753910
0.785160
0.416020
0.160160
0.115230
0.156250
0.130860
0.130860
0.125000
0.130860
0.130860
0.140620
0.130860
0.140620
0.140620
0.134770
0.130860
0.134770
0.130860
0.140620
0.144530
0.140620
0.144530
0.130860
0.144530
0.140620
0.144530
0.140620
0.140620
0.150390
0.169920
0.175780
0.189450
0.185550
0.201170
0.205080
0.224610
0.214840
0.224610
0.224610
0.224610
0.210940
0.201170
0.220700
0.210940
0.220700
0.205080
0.214840
0.201170
0.214840
0.210940
0.224610
0.224610
0.240230
0.246090
0.255860
0.275390
0.285160
0.265620
0.269530
0.250000
0.230470
0.214840
0.205080
0.195310
0.195310
0.185550
0.179690
0.189450
0.179690
0.189450
0.175780
0.179690
0.140620
0.134770
0.300780
0.544920
0.765620
0.775390
0.400390
0.144530
0.105470
0.150390
0.140620
0.144530
0.125000
0.130860
0.134770
0.130860
0.134770
0.130860
0.134770
0.130860
0.130860
0.140620
0.134770
0.144530
0.134770
0.140620
0.140620
0.134770
0.144530
0.134770
0.144530
0.140620
0.144530
0.140620
0.166020
0.169920
0.179690
0.195310
0.210940
0.214840
0.224610
0.234380
0.224610
0.224610
0.224610
0.224610
0.220700
0.214840
0.220700
0.214840
0.224610
0.214840
0.214840
0.214840
0.220700
0.224610
0.224610
0.246090
0.246090
0.269530
0.279300
0.269530
0.265620
0.269530
0.240230
0.224610
0.210940
0.205080
0.201170
0.201170
0.189450
0.185550
0.185550
0.179690
0.195310
0.189450
0.195310
0.144530
0.169920
0.324220
0.583980
0.789060
0.794920
0.394530
0.156250
0.125000
0.169920
0.160160
0.160160
0.150390
0.160160
0.160160
0.169920
0.175780
0.169920
0.175780
0.169920
0.179690
0.175780
0.179690
0.175780
0.179690
0.175780
0.179690
0.175780
0.179690
0.179690
0.179690
0.179690
0.185550
0.189450
0.205080
0.210940
0.224610
0.224610
0.246090
0.246090
0.255860
0.259770
0.265620
0.259770
0.259770
0.259770
0.259770
0.265620
0.246090
0.255860
0.250000
0.255860
0.250000
0.259770
0.259770
0.269530
0.269530
0.291020
0.294920
0.310550
0.314450
0.320310
0.310550
0.310550
0.294920
0.275390
0.259770
0.259770
0.234380
0.230470
0.234380
0.230470
0.234380
0.230470
0.234380
0.230470
0.224610
0.185550
0.175780
0.324220
0.564450
0.810550
0.839840
0.474610
0.201170
0.144530
0.189450
0.179690
0.175780
0.169920
0.179690
0.175780
0.175780
0.179690
0.175780
0.185550
0.175780
0.179690
0.175780
0.179690
0.185550
0.175780
0.175780
0.179690
0.179690
0.185550
0.175780
0.189450
0.195310
0.185550
0.189450
0.201170
0.210940
0.224610
0.230470
0.246090
0.246090
0.255860
0.250000
0.259770
0.250000
0.246090
0.250000
0.255860
0.246090
0.240230
0.246090
0.230470
0.246090
0.246090
0.240230
0.240230
0.246090
0.246090
0.265620
0.275390
0.285160
0.304690
0.310550
0.300780
0.310550
0.300780
0.275390
0.246090
0.246090
0.240230
0.224610
0.220700
0.224610
0.210940
0.214840
0.224610
0.224610
0.205080
0.166020
0.144530
0.269530
0.529300
0.820310
0.894530
0.580080
0.234380
0.099609
0.130860
0.134770
0.130860
0.144530
0.140620
0.144530
0.140620
0.150390
0.150390
0.150390
0.150390
0.140620
0.144530
0.156250
0.144530
0.144530
0.130860
0.140620
0.134770
0.144530
0.130860
0.140620
0.144530
0.150390
0.144530
0.160160
0.179690
0.189450
0.201170
0.214840
0.220700
0.230470
0.224610
0.230470
0.224610
0.214840
0.224610
0.210940
0.210940
0.210940
0.205080
0.205080
0.210940
0.201170
0.201170
0.201170
0.205080
0.201170
0.214840
0.224610
0.246090
0.259770
0.275390
0.269530
0.269530
0.265620
0.255860
0.224610
0.210940
0.201170
0.195310
0.189450
0.185550
0.175780
0.175780
0.179690
0.175780
0.175780
0.166020
0.115230
0.111330
0.335940
0.615230
0.875000
0.884770
0.429690
0.125000
0.060547
0.076172
0.089844
0.099609
0.099609
0.105470
0.105470
0.105470
0.105470
0.105470
0.111330
0.115230
0.105470
0.111330
0.099609
0.105470
0.105470
0.105470
0.105470
0.105470
0.099609
0.099609
0.095703
0.099609
0.099609
0.111330
0.121090
0.134770
0.144530
0.150390
0.169920
0.175780
0.189450
0.185550
0.195310
0.189450
0.195310
0.189450
0.185550
0.175780
0.169920
0.175780
0.175780
0.175780
0.175780
0.169920
0.175780
0.175780
0.189450
0.201170
0.220700
0.224610
0.214840
0.210940
0.214840
0.201170
0.175780
0.160160
0.156250
0.160160
0.150390
0.144530
0.144530
0.150390
0.150390
0.144530
0.140620
0.144530
0.089844
0.134770
0.314450
0.595700
0.820310
0.730470
0.390620
0.134770
0.105470
0.099609
0.080078
0.080078
0.076172
0.080078
0.080078
0.080078
0.085938
0.080078
0.085938
0.089844
0.095703
0.095703
0.095703
0.089844
0.095703
0.089844
0.095703
0.085938
0.095703
0.089844
0.089844
0.095703
0.105470
0.111330
0.130860
0.140620
0.150390
0.160160
0.169920
0.175780
0.189450
0.201170
0.189450
0.189450
0.179690
0.185550
0.185550
0.189450
0.175780
0.185550
0.179690
0.179690
0.175780
0.179690
0.175780
0.185550
0.175780
0.179690
0.201170
0.210940
0.224610
0.234380
0.240230
0.224610
0.234380
0.224610
0.201170
0.185550
0.175780
0.175780
0.169920
0.156250
0.160160
0.156250
0.166020
0.160160
0.160160
0.156250
0.130860
0.115230
0.269530
0.535160
0.794920
0.830080
0.474610
0.195310
0.130860
0.125000
0.115230
0.105470
0.099609
0.095703
0.105470
0.111330
0.105470
0.115230
0.105470
0.115230
0.111330
0.115230
0.105470
0.111330
0.105470
0.115230
0.105470
0.105470
0.105470
0.105470
0.105470
0.105470
0.111330
0.121090
0.130860
0.144530
0.156250
0.166020
0.175780
0.189450
0.195310
0.195310
0.201170
0.195310
0.189450
0.195310
0.201170
0.195310
0.195310
0.189450
0.195310
0.189450
0.195310
0.185550
0.185550
0.185550
0.201170
0.205080
0.220700
0.234380
0.246090
0.240230
0.224610
0.230470
0.201170
0.179690
0.175780
0.175780
0.166020
0.156250
0.150390
0.160160
0.156250
0.160160
0.150390
0.160160
0.125000
0.105470
0.195310
0.419920
0.685550
0.785160
0.564450
0.259770
0.105470
0.115230
0.105470
0.099609
0.095703
0.089844
0.085938
0.085938
0.095703
0.099609
0.105470
0.099609
0.105470
0.105470
0.111330
0.111330
0.105470
0.099609
0.105470
0.105470
0.105470
0.099609
0.095703
0.099609
0.105470
0.115230
0.125000
0.130860
0.134770
0.150390
0.150390
0.169920
0.175780
0.185550
0.175780
0.185550
0.179690
0.185550
0.175780
0.175780
0.175780
0.175780
0.175780
0.175780
0.175780
0.179690
0.175780
0.179690
0.195310
0.210940
0.214840
0.230470
0.224610
0.220700
0.220700
0.205080
0.189450
0.175780
0.175780
0.166020
0.150390
0.150390
0.150390
0.144530
0.150390
0.150390
0.150390
0.144530
0.125000
0.105470
0.234380
0.484380
0.734380
0.785160
0.460940
0.179690
0.111330
0.130860
0.105470
0.095703
0.099609
0.089844
0.095703
0.095703
0.099609
0.105470
0.099609
0.111330
0.111330
0.115230
0.111330
0.111330
0.105470
0.111330
0.105470
0.121090
0.111330
0.105470
0.105470
0.111330
0.115230
0.105470
0.130860
0.140620
0.140620
0.166020
0.175780
0.185550
0.189450
0.185550
0.195310
0.195310
0.201170
0.189450
0.201170
0.195310
0.201170
0.195310
0.195310
0.201170
0.201170
0.189450
0.195310
0.201170
0.214840
0.230470
0.246090
0.250000
0.246090
0.240230
0.234380
0.230470
0.214840
0.189450
0.179690
0.175780
0.175780
0.175780
0.169920
0.175780
0.166020
0.166020
0.175780
0.169920
0.125000
0.115230
0.259770
0.505860
0.765620
0.798830
0.445310
0.189450
0.130860
0.150390
0.134770
0.121090
0.121090
0.105470
0.111330
0.121090
0.125000
0.115230
0.125000
0.121090
0.130860
0.125000
0.121090
0.125000
0.121090
0.130860
0.121090
0.130860
0.121090
0.121090
0.115230
0.121090
0.115230
0.130860
0.150390
0.166020
0.160160
0.175780
0.175780
0.195310
0.201170
0.210940
0.201170
0.210940
0.195310
0.205080
0.201170
0.210940
0.201170
0.195310
0.201170
0.205080
0.189450
0.201170
0.201170
0.210940
0.224610
0.234380
0.246090
0.259770
0.269530
0.250000
0.255860
0.234380
0.210940
0.195310
0.201170
0.185550
0.201170
0.160160
0.175780
0.175780
0.179690
0.175780
0.179690
0.175780
0.134770
0.121090
0.220700
0.455080
0.724610
0.794920
0.509770
0.220700
0.130860
0.156250
0.150390
0.130860
0.121090
0.121090
0.115230
0.130860
0.125000
0.121090
0.125000
0.130860
0.130860
0.134770
0.125000
0.130860
0.121090
0.115230
0.130860
0.134770
0.130860
0.130860
0.121090
0.115230
0.134770
0.144530
0.150390
0.150390
0.166020
0.185550
0.189450
0.201170
0.205080
0.201170
0.220700
0.210940
0.224610
0.220700
0.214840
0.210940
0.214840
0.214840
0.205080
0.205080
0.210940
0.205080
0.205080
0.195310
0.224610
0.230470
0.240230
0.265620
0.269530
0.255860
0.246090
0.250000
0.230470
0.214840
0.201170
0.195310
0.179690
0.185550
0.169920
0.169920
0.166020
0.175780
0.166020
0.175780
0.156250
0.121090
0.144530
0.314450
0.570310
0.769530
0.675780
0.349610
0.115230
0.156250
0.144530
0.130860
0.130860
0.111330
0.115230
0.125000
0.134770
0.130860
0.134770
0.134770
0.125000
0.130860
0.134770
0.130860
0.134770
0.134770
0.134770
0.125000
0.130860
0.130860
0.130860
0.130860
0.144530
0.150390
0.150390
0.156250
0.166020
0.175780
0.185550
0.201170
0.210940
0.214840
0.210940
0.220700
0.210940
0.205080
0.201170
0.201170
0.195310
0.205080
0.189450
0.189450
0.201170
0.205080
0.214840
0.210940
0.220700
0.224610
0.234380
0.250000
0.265620
0.265620
0.259770
0.255860
0.240230
0.220700
0.205080
0.195310
0.201170
0.179690
0.185550
0.175780
0.175780
0.169920
0.175780
0.169920
0.175780
0.140620
0.121090
0.210940
0.429690
0.695310
0.765620
0.500000
0.210940
0.115230
0.144530
0.130860
0.121090
0.130860
0.130860
0.121090
0.121090
0.125000
0.125000
0.130860
0.125000
0.130860
0.125000
0.130860
0.134770
0.125000
0.121090
0.121090
0.121090
0.130860
0.125000
0.130860
0.130860
0.130860
0.144530
0.150390
0.160160
0.169920
0.175780
0.179690
0.201170
0.201170
0.210940
0.214840
0.214840
0.201170
0.205080
0.201170
0.201170
0.201170
0.205080
0.201170
0.205080
0.195310
0.201170
0.210940
0.214840
0.224610
0.240230
0.255860
0.269530
0.275390
0.265620
0.255860
0.246090
0.230470
0.201170
0.201170
0.195310
0.189450
0.179690
0.189450
0.169920
0.175780
0.169920
0.175780
0.175780
0.156250
0.115230
0.205080
0.400390
0.644530
0.750000
0.550780
0.259770
0.121090
0.144530
0.150390
0.134770
0.125000
0.121090
0.130860
0.130860
0.130860
0.130860
0.125000
0.130860
0.125000
0.134770
0.130860
0.134770
0.134770
0.130860
0.130860
0.130860
0.140620
0.144530
0.150390
0.130860
0.144530
0.140620
0.150390
0.160160
0.175780
0.185550
0.205080
0.201170
0.224610
0.210940
0.220700
0.210940
0.224610
0.214840
0.210940
0.205080
0.214840
0.205080
0.201170
0.210940
0.205080
0.224610
0.214840
0.210940
0.220700
0.234380
0.246090
0.246090
0.269530
0.279300
0.259770
0.255860
0.246090
0.230470
0.205080
0.201170
0.189450
0.189450
0.169920
0.185550
0.175780
0.169920
0.175780
0.179690
0.185550
0.144530
0.130860
0.234380
0.445310
0.705080
0.759770
0.484380
0.195310
0.111330
0.150390
0.144530
0.130860
0.125000
0.125000
0.121090
0.121090
0.121090
0.130860
0.125000
0.134770
0.130860
0.130860
0.121090
0.130860
0.140620
0.140620
0.121090
0.125000
0.130860
0.130860
0.125000
0.130860
0.134770
0.140620
0.150390
0.169920
0.185550
0.185550
0.201170
0.205080
0.205080
0.214840
0.220700
0.210940
0.214840
0.220700
0.201170
0.210940
0.201170
0.195310
0.205080
0.214840
0.205080
0.201170
0.201170
0.210940
0.224610
0.240230
0.246090
0.265620
0.275390
0.265620
0.255860
0.265620
0.246090
0.220700
0.201170
0.205080
0.189450
0.195310
0.185550
0.189450
0.175780
0.175780
0.179690
0.175780
0.179690
0.125000
0.115230
0.291020
0.539060
0.750000
0.765620
0.380860
0.134770
0.099609
0.150390
0.144530
0.134770
0.130860
0.130860
0.134770
0.130860
0.140620
0.140620
0.134770
0.144530
0.144530
0.140620
0.134770
0.134770
0.140620
0.130860
0.134770
0.140620
0.134770
0.140620
0.144530
0.130860
0.140620
0.150390
0.166020
0.175780
0.189450
0.185550
0.201170
0.205080
0.220700
0.224610
0.220700
0.224610
0.220700
0.224610
0.214840
0.220700
0.205080
0.214840
0.201170
0.214840
0.205080
0.220700
0.224610
0.224610
0.220700
0.250000
0.259770
0.291020
0.285160
0.279300
0.269530
0.259770
0.240230
0.224610
0.214840
0.205080
0.189450
0.201170
0.205080
0.201170
0.189450
0.195310
0.195310
0.195310
0.169920
0.140620
0.230470
0.464840
0.714840
0.779300
0.515620
0.230470
0.111330
0.169920
0.175780
0.140620
0.134770
0.134770
0.150390
0.134770
0.140620
0.140620
0.144530
0.134770
0.144530
0.150390
0.140620
0.134770
0.144530
0.150390
0.140620
0.134770
0.144530
0.150390
0.144530
0.150390
0.150390
0.156250
0.166020
0.179690
0.189450
0.201170
0.210940
0.224610
0.224610
0.234380
0.230470
0.234380
0.224610
0.224610
0.230470
0.224610
0.220700
0.214840
0.220700
0.214840
0.224610
0.224610
0.224610
0.224610
0.240230
0.250000
0.269530
0.275390
0.279300
0.275390
0.269530
0.265620
0.246090
0.224610
0.224610
0.220700
0.210940
0.201170
0.195310
0.201170
0.195310
0.201170
0.201170
0.201170
0.175780
0.144530
0.230470
0.445310
0.699220
0.785160
0.550780
0.259770
0.130860
0.175780
0.175780
0.175780
0.169920
0.175780
0.175780
0.175780
0.179690
0.189450
0.195310
0.189450
0.195310
0.195310
0.201170
0.201170
0.201170
0.205080
0.205080
0.205080
0.201170
0.201170
0.210940
0.205080
0.220700
0.220700
0.234380
0.246090
0.255860
0.259770
0.269530
0.279300
0.291020
0.291020
0.300780
0.294920
0.294920
0.300780
0.291020
0.291020
0.294920
0.291020
0.285160
0.291020
0.275390
0.285160
0.291020
0.294920
0.294920
0.310550
0.314450
0.339840
0.345700
0.345700
0.339840
0.345700
0.320310
0.310550
0.285160
0.279300
0.285160
0.269530
0.259770
0.269530
0.259770
0.259770
0.265620
0.259770
0.265620
0.214840
0.189450
0.310550
0.544920
0.798830
0.855470
0.550780
0.259770
0.166020
0.201170
0.201170
0.205080
0.210940
0.210940
0.201170
0.201170
0.210940
0.214840
0.205080
0.220700
0.210940
0.205080
0.210940
0.201170
0.201170
0.195310
0.201170
0.201170
0.201170
0.189450
0.205080
0.195310
0.195310
0.201170
0.210940
0.224610
0.230470
0.240230
0.246090
0.255860
0.259770
0.255860
0.269530
0.259770
0.255860
0.269530
0.246090
0.250000
0.246090
0.250000
0.240230
0.246090
0.234380
0.246090
0.255860
0.246090
0.240230
0.259770
0.269530
0.294920
0.304690
0.310550
0.294920
0.310550
0.304690
0.275390
0.240230
0.230470
0.224610
0.224610
0.210940
0.210940
0.201170
0.201170
0.205080
0.201170
0.195310
0.166020
0.125000
0.240230
0.464840
0.753910
0.859380
0.625000
0.255860
0.064453
0.095703
0.111330
0.130860
0.125000
0.125000
0.130860
0.130860
0.134770
0.144530
0.134770
0.144530
0.150390
0.130860
0.134770
0.134770
0.140620
0.140620
0.150390
0.134770
0.134770
0.130860
0.134770
0.134770
0.134770
0.140620
0.134770
0.166020
0.175780
0.189450
0.201170
0.210940
0.224610
0.220700
0.214840
0.224610
0.214840
0.224610
0.205080
0.205080
0.201170
0.201170
0.195310
0.195310
0.201170
0.195310
0.195310
0.201170
0.201170
0.210940
0.224610
0.246090
0.265620
0.275390
0.269530
0.275390
0.265620
0.250000
0.214840
0.205080
0.201170
0.189450
0.189450
0.185550
0.179690
0.179690
0.185550
0.179690
0.185550
0.140620
0.105470
0.189450
0.439450
0.750000
0.910160
0.695310
0.291020
0.060547
0.050781
0.080078
0.105470
0.105470
0.105470
0.105470
0.105470
0.115230
0.115230
0.121090
0.121090
0.115230
0.111330
0.111330
0.111330
0.115230
0.111330
0.115230
0.099609
0.105470
0.099609
0.105470
0.099609
0.105470
0.105470
0.115230
0.125000
0.144530
0.156250
0.169920
0.175780
0.175780
0.185550
0.189450
0.175780
0.179690
0.185550
0.179690
0.175780
0.175780
0.175780
0.169920
0.175780
0.175780
0.179690
0.175780
0.179690
0.185550
0.205080
0.214840
0.234380
0.240230
0.246090
0.234380
0.240230
0.224610
0.201170
0.179690
0.179690
0.175780
0.175780
0.175780
0.169920
0.169920
0.166020
0.169920
0.166020
0.156250
0.105470
0.140620
0.324220
0.619140
0.843750
0.759770
0.400390
0.150390
0.121090
0.105470
0.105470
0.105470
0.105470
0.111330
0.111330
0.115230
0.121090
0.125000
0.125000
0.121090
0.125000
0.121090
0.125000
0.121090
0.125000
0.121090
0.121090
0.111330
0.121090
0.111330
0.115230
0.115230
0.125000
0.130860
0.140620
0.150390
0.166020
0.175780
0.189450
0.201170
0.201170
0.201170
0.201170
0.205080
0.201170
0.201170
0.201170
0.201170
0.195310
0.201170
0.195310
0.201170
0.195310
0.195310
0.189450
0.195310
0.185550
0.195310
0.201170
0.210940
0.220700
0.234380
0.246090
0.246090
0.240230
0.246090
0.224610
0.205080
0.189450
0.185550
0.179690
0.169920
0.175780
0.169920
0.175780
0.169920
0.175780
0.169920
0.156250
0.125000
0.189450
0.394530
0.689450
0.843750
0.685550
0.339840
0.134770
0.130860
0.125000
0.121090
0.111330
0.115230
0.111330
0.115230
0.111330
0.115230
0.121090
0.125000
0.115230
0.125000
0.121090
0.121090
0.121090
0.121090
0.111330
0.111330
0.111330
0.115230
0.105470
0.111330
0.105470
0.115230
0.121090
0.130860
0.150390
0.160160
0.175780
0.179690
0.189450
0.195310
0.195310
0.189450
0.201170
0.189450
0.195310
0.189450
0.195310
0.189450
0.195310
0.185550
0.185550
0.185550
0.179690
0.175780
0.189450
0.201170
0.210940
0.224610
0.234380
0.240230
0.230470
0.230470
0.214840
0.195310
0.175780
0.175780
0.169920
0.160160
0.150390
0.160160
0.150390
0.156250
0.156250
0.156250
0.150390
0.111330
0.105470
0.275390
0.535160
0.779300
0.798830
0.429690
0.166020
0.121090
0.130860
0.111330
0.099609
0.099609
0.105470
0.099609
0.105470
0.105470
0.111330
0.111330
0.115230
0.111330
0.115230
0.105470
0.111330
0.105470
0.105470
0.105470
0.105470
0.105470
0.105470
0.099609
0.099609
0.105470
0.115230
0.125000
0.140620
0.150390
0.156250
0.169920
0.175780
0.185550
0.189450
0.195310
0.189450
0.185550
0.179690
0.185550
0.179690
0.185550
0.179690
0.179690
0.175780
0.175780
0.175780
0.185550
0.185550
0.201170
0.214840
0.224610
0.230470
0.224610
0.230470
0.220700
0.201170
0.175780
0.169920
0.175780
0.160160
0.156250
0.160160
0.156250
0.156250
0.150390
0.160160
0.160160
0.140620
0.105470
0.185550
0.394530
0.679690
0.798830
0.595700
0.275390
0.121090
0.130860
0.125000
0.111330
0.105470
0.105470
0.099609
0.105470
0.099609
0.111330
0.105470
0.115230
0.105470
0.111330
0.111330
0.115230
0.105470
0.105470
0.111330
0.105470
0.105470
0.111330
0.105470
0.111330
0.105470
0.115230
0.121090
0.134770
0.150390
0.150390
0.169920
0.175780
0.179690
0.185550
0.195310
0.195310
0.201170
0.185550
0.189450
0.185550
0.195310
0.179690
0.179690
0.189450
0.189450
0.185550
0.189450
0.185550
0.201170
0.210940
0.230470
0.240230
0.240230
0.230470
0.224610
0.214840
0.205080
0.179690
0.166020
0.179690
0.169920
0.160160
0.150390
0.160160
0.160160
0.160160
0.160160
0.160160
0.130860
0.105470
0.189450
0.416020
0.685550
0.794920
0.570310
0.259770
0.130860
0.144530
0.115230
0.111330
0.099609
0.105470
0.105470
0.105470
0.111330
0.115230
0.121090
0.115230
0.115230
0.125000
0.130860
0.121090
0.125000
0.115230
0.125000
0.115230
0.121090
0.115230
0.125000
0.130860
0.121090
0.130860
0.140620
0.156250
0.166020
0.175780
0.175780
0.189450
0.201170
0.201170
0.205080
0.210940
0.201170
0.201170
0.201170
0.205080
0.201170
0.205080
0.205080
0.210940
0.201170
0.201170
0.195310
0.210940
0.224610
0.234380
0.255860
0.265620
0.265620
0.250000
0.246090
0.230470
0.234380
0.201170
0.195310
0.185550
0.189450
0.175780
0.175780
0.175780
0.185550
0.179690
0.189450
0.175780
0.156250
0.125000
0.240230
0.470700
0.744140
0.804690
0.505860
0.230470
0.140620
0.156250
0.150390
0.134770
0.130860
0.130860
0.125000
0.130860
0.130860
0.130860
0.140620
0.150390
0.130860
0.140620
0.134770
0.144530
0.130860
0.140620
0.140620
0.144530
0.134770
0.140620
0.130860
0.130860
0.144530
0.150390
0.150390
0.166020
0.175780
0.185550
0.195310
0.205080
0.224610
0.220700
0.214840
0.220700
0.224610
0.214840
0.214840
0.205080
0.214840
0.210940
0.210940
0.205080
0.214840
0.214840
0.220700
0.214840
0.230470
0.246090
0.255860
0.269530
0.269530
0.250000
0.246090
0.250000
0.220700
0.210940
0.201170
0.195310
0.189450
0.175780
0.175780
0.179690
0.179690
0.179690
0.185550
0.175780
0.144530
0.125000
0.246090
0.484380
0.740230
0.785160
0.464840
0.195310
0.134770
0.160160
0.144530
0.134770
0.125000
0.130860
0.130860
0.121090
0.130860
0.130860
0.140620
0.134770
0.144530
0.130860
0.134770
0.134770
0.134770
0.134770
0.140620
0.144530
0.140620
0.134770
0.144530
0.144530
0.144530
0.150390
0.160160
0.169920
0.175780
0.195310
0.195310
0.210940
0.214840
0.224610
0.224610
0.224610
0.220700
0.224610
0.214840
0.220700
0.214840
0.214840
0.205080
0.210940
0.210940
0.201170
0.214840
0.210940
0.224610
0.230470
0.255860
0.269530
0.265620
0.250000
0.250000
0.240230
0.224610
0.201170
0.201170
0.189450
0.179690
0.175780
0.189450
0.175780
0.189450
0.185550
0.185550
0.179690
0.140620
0.121090
0.246090
0.464840
0.734380
0.789060
0.484380
0.205080
0.130860
0.160160
0.150390
0.140620
0.134770
0.130860
0.125000
0.140620
0.134770
0.140620
0.150390
0.144530
0.134770
0.150390
0.134770
0.130860
0.140620
0.130860
0.140620
0.144530
0.140620
0.134770
0.140620
0.134770
0.130860
0.134770
0.150390
0.169920
0.179690
0.185550
0.201170
0.201170
0.220700
0.214840
0.224610
0.214840
0.224610
0.220700
0.214840
0.205080
0.210940
0.214840
0.220700
0.205080
0.214840
0.201170
0.210940
0.224610
0.240230
0.246090
0.265620
0.269530
0.265620
0.259770
0.265620
0.240230
0.224610
0.220700
0.205080
0.195310
0.189450
0.195310
0.185550
0.195310
0.185550
0.189450
0.185550
0.185550
0.140620
0.125000
0.291020
0.529300
0.775390
0.785160
0.410160
0.160160
0.134770
0.169920
0.150390
0.144530
0.140620
0.134770
0.134770
0.144530
0.150390
0.150390
0.144530
0.150390
0.160160
0.156250
0.150390
0.150390
0.150390
0.144530
0.150390
0.140620
0.150390
0.144530
0.156250
0.144530
0.150390
0.160160
0.156250
0.175780
0.185550
0.205080
0.205080
0.224610
0.230470
0.240230
0.224610
0.246090
0.230470
0.224610
0.230470
0.224610
0.220700
0.224610
0.224610
0.224610
0.230470
0.224610
0.224610
0.230470
0.246090
0.255860
0.269530
0.291020
0.294920
0.269530
0.269530
0.255860
0.234380
0.214840
0.210940
0.201170
0.201170
0.189450
0.195310
0.189450
0.195310
0.185550
0.189450
0.179690
0.144530
0.130860
0.285160
0.519530
0.750000
0.775390
0.429690
0.175780
0.125000
0.166020
0.150390
0.130860
0.130860
0.130860
0.130860
0.134770
0.130860
0.140620
0.140620
0.150390
0.140620
0.140620
0.144530
0.140620
0.150390
0.140620
0.144530
0.140620
0.134770
0.140620
0.130860
0.140620
0.144530
0.156250
0.156250
0.175780
0.179690
0.189450
0.210940
0.205080
0.220700
0.210940
0.230470
0.220700
0.224610
0.224610
0.230470
0.224610
0.224610
0.214840
0.210940
0.224610
0.214840
0.214840
0.224610
0.234380
0.246090
0.250000
0.275390
0.285160
0.265620
0.265620
0.269530
0.240230
0.210940
0.205080
0.201170
0.201170
0.185550
0.175780
0.179690
0.195310
0.185550
0.185550
0.195310
0.175780
0.125000
0.166020
0.345700
0.583980
0.765620
0.650390
0.349610
0.121090
0.144530
0.156250
0.144530
0.134770
0.134770
0.130860
0.130860
0.134770
0.150390
0.134770
0.140620
0.134770
0.150390
0.140620
0.134770
0.140620
0.150390
0.140620
0.134770
0.140620
0.144530
0.134770
0.144530
0.150390
0.144530
0.156250
0.175780
0.185550
0.179690
0.195310
0.201170
0.220700
0.214840
0.224610
0.220700
0.214840
0.220700
0.224610
0.210940
0.224610
0.205080
0.214840
0.214840
0.205080
0.201170
0.214840
0.220700
0.224610
0.240230
0.250000
0.269530
0.279300
0.275390
0.265620
0.269530
0.234380
0.224610
0.201170
0.201170
0.185550
0.189450
0.185550
0.189450
0.175780
0.195310
0.185550
0.185550
0.166020
0.130860
0.185550
0.375000
0.634770
0.775390
0.595700
0.304690
0.115230
0.150390
0.160160
0.150390
0.130860
0.130860
0.130860
0.121090
0.130860
0.130860
0.150390
0.140620
0.140620
0.134770
0.144530
0.134770
0.144530
0.140620
0.140620
0.144530
0.150390
0.134770
0.134770
0.134770
0.140620
0.144530
0.156250
0.166020
0.175780
0.185550
0.201170
0.210940
0.220700
0.224610
0.220700
0.224610
0.214840
0.224610
0.220700
0.220700
0.214840
0.224610
0.210940
0.205080
0.210940
0.210940
0.214840
0.210940
0.224610
0.240230
0.259770
0.275390
0.291020
0.275390
0.269530
0.255860
0.230470
0.214840
0.210940
0.201170
0.201170
0.195310
0.185550
0.175780
0.185550
0.175780
0.179690
0.175780
0.150390
0.125000
0.246090
0.474610
0.724610
0.779300
0.474610
0.205080
0.121090
0.150390
0.140620
0.150390
0.130860
0.130860
0.130860
0.144530
0.140620
0.130860
0.134770
0.144530
0.130860
0.134770
0.130860
0.134770
0.140620
0.140620
0.134770
0.140620
0.130860
0.134770
0.134770
0.140620
0.144530
0.140620
0.160160
0.166020
0.179690
0.185550
0.201170
0.201170
0.214840
0.220700
0.224610
0.224610
0.220700
0.210940
0.220700
0.214840
0.214840
0.210940
0.210940
0.214840
0.214840
0.210940
0.220700
0.224610
0.230470
0.246090
0.265620
0.279300
0.279300
0.269530
0.269530
0.265620
0.246090
0.224610
0.214840
0.210940
0.201170
0.205080
0.201170
0.201170
0.201170
0.201170
0.210940
0.205080
0.166020
0.156250
0.300780
0.539060
0.775390
0.810550
0.464840
0.201170
0.140620
0.185550
0.175780
0.175780
0.175780
0.175780
0.179690
0.175780
0.175780
0.179690
0.185550
0.179690
0.195310
0.189450
0.201170
0.179690
0.175780
0.179690
0.175780
0.179690
0.175780
0.179690
0.175780
0.179690
0.185550
0.189450
0.195310
0.205080
0.214840
0.224610
0.234380
0.246090
0.246090
0.255860
0.255860
0.259770
0.250000
0.250000
0.250000
0.250000
0.246090
0.255860
0.246090
0.246090
0.246090
0.250000
0.259770
0.259770
0.269530
0.285160
0.294920
0.300780
0.310550
0.300780
0.310550
0.294920
0.285160
0.259770
0.246090
0.240230
0.246090
0.224610
0.224610
0.224610
0.224610
0.224610
0.224610
0.224610
0.205080
0.156250
0.220700
0.419920
0.679690
0.830080
0.664060
0.330080
0.125000
0.160160
0.175780
0.175780
0.169920
0.179690
0.169920
0.175780
0.179690
0.185550
0.179690
0.189450
0.185550
0.179690
0.185550
0.179690
0.175780
0.179690
0.189450
0.185550
0.195310
0.195310
0.175780
0.175780
0.189450
0.185550
0.195310
0.210940
0.220700
0.224610
0.246090
0.246090
0.259770
0.246090
0.265620
0.255860
0.259770
0.250000
0.255860
0.250000
0.246090
0.246090
0.240230
0.234380
0.240230
0.246090
0.234380
0.246090
0.246090
0.269530
0.294920
0.300780
0.304690
0.300780
0.294920
0.304690
0.269530
0.246090
0.230470
0.234380
0.224610
0.214840
0.220700
0.214840
0.210940
0.214840
0.220700
0.205080
0.160160
0.125000
0.240230
0.484380
0.789060
0.900390
0.634770
0.259770
0.076172
0.095703
0.115230
0.130860
0.134770
0.144530
0.134770
0.134770
0.150390
0.140620
0.150390
0.134770
0.150390
0.134770
0.140620
0.144530
0.134770
0.134770
0.150390
0.134770
0.144530
0.134770
0.140620
0.134770
0.130860
0.144530
0.160160
0.175780
0.185550
0.205080
0.210940
0.214840
0.224610
0.234380
0.240230
0.230470
0.246090
0.224610
0.210940
0.201170
0.201170
0.195310
0.201170
0.195310
0.201170
0.195310
0.201170
0.195310
0.205080
0.214840
0.230470
0.240230
0.255860
0.259770
0.269530
0.265620
0.269530
0.230470
0.210940
0.195310
0.195310
0.179690
0.179690
0.175780
0.169920
0.166020
0.160160
0.166020
0.156250
0.105470
0.089844
0.269530
0.544920
0.833980
0.888670
0.505860
0.156250
0.035156
0.054688
0.076172
0.080078
0.085938
0.076172
0.085938
0.085938
0.089844
0.089844
0.089844
0.085938
0.095703
0.089844
0.085938
0.089844
0.085938
0.089844
0.080078
0.085938
0.080078
0.080078
0.085938
0.085938
0.080078
0.089844
0.099609
0.121090
0.130860
0.150390
0.160160
0.175780
0.179690
0.189450
0.185550
0.185550
0.185550
0.189450
0.179690
0.175780
0.175780
0.175780
0.175780
0.166020
0.175780
0.175780
0.175780
0.169920
0.185550
0.195310
0.210940
0.214840
0.224610
0.224610
0.224610
0.220700
0.205080
0.179690
0.175780
0.169920
0.166020
0.160160
0.160160
0.160160
0.160160
0.156250
0.156250
0.160160
0.134770
0.105470
0.201170
0.445310
0.724610
0.843750
0.615230
0.291020
0.121090
0.130860
0.115230
0.111330
0.105470
0.105470
0.105470
0.105470
0.111330
0.121090
0.125000
0.121090
0.130860
0.125000
0.125000
0.121090
0.130860
0.125000
0.121090
0.115230
0.121090
0.111330
0.115230
0.115230
0.121090
0.130860
0.140620
0.144530
0.169920
0.175780
0.185550
0.195310
0.205080
0.210940
0.214840
0.220700
0.210940
0.205080
0.205080
0.205080
0.201170
0.201170
0.201170
0.205080
0.201170
0.201170
0.201170
0.201170
0.195310
0.205080
0.201170
0.210940
0.224610
0.240230
0.246090
0.250000
0.246090
0.246090
0.240230
0.224610
0.205080
0.201170
0.195310
0.189450
0.179690
0.175780
0.179690
0.175780
0.179690
0.175780
0.179690
0.140620
0.134770
0.314450
0.570310
0.824220
0.849610
0.464840
0.195310
0.134770
0.140620
0.125000
0.121090
0.115230
0.121090
0.115230
0.121090
0.115230
0.125000
0.121090
0.121090
0.125000
0.121090
0.130860
0.125000
0.130860
0.121090
0.125000
0.121090
0.121090
0.121090
0.115230
0.115230
0.125000
0.125000
0.140620
0.150390
0.166020
0.175780
0.185550
0.201170
0.205080
0.201170
0.205080
0.201170
0.201170
0.205080
0.201170
0.195310
0.189450
0.195310
0.189450
0.189450
0.189450
0.189450
0.185550
0.201170
0.201170
0.220700
0.224610
0.240230
0.234380
0.224610
0.224610
0.224610
0.201170
0.189450
0.179690
0.175780
0.175780
0.166020
0.160160
0.156250
0.160160
0.156250
0.166020
0.156250
0.134770
0.115230
0.234380
0.464840
0.740230
0.814450
0.550780
0.240230
0.130860
0.134770
0.121090
0.111330
0.105470
0.105470
0.105470
0.105470
0.111330
0.111330
0.111330
0.115230
0.111330
0.121090
0.115230
0.125000
0.115230
0.121090
0.115230
0.111330
0.105470
0.115230
0.105470
0.111330
0.105470
0.121090
0.125000
0.144530
0.150390
0.160160
0.175780
0.179690
0.189450
0.201170
0.195310
0.189450
0.201170
0.201170
0.195310
0.189450
0.201170
0.189450
0.189450
0.179690
0.189450
0.185550
0.189450
0.189450
0.210940
0.214840
0.234380
0.240230
0.246090
0.240230
0.234380
0.220700
0.205080
0.189450
0.185550
0.189450
0.175780
0.169920
0.166020
0.166020
0.156250
0.166020
0.160160
0.166020
0.115230
0.111330
0.269530
0.539060
0.775390
0.804690
0.425780
0.169920
0.130860
0.134770
0.121090
0.105470
0.099609
0.105470
0.105470
0.105470
0.111330
0.105470
0.111330
0.111330
0.115230
0.121090
0.115230
0.111330
0.115230
0.111330
0.115230
0.105470
0.111330
0.105470
0.105470
0.105470
0.111330
0.121090
0.130860
0.140620
0.160160
0.169920
0.175780
0.179690
0.175780
0.185550
0.189450
0.189450
0.189450
0.189450
0.185550
0.189450
0.185550
0.189450
0.185550
0.185550
0.189450
0.185550
0.179690
0.189450
0.195310
0.214840
0.230470
0.246090
0.240230
0.234380
0.230470
0.224610
0.201170
0.179690
0.185550
0.169920
0.175780
0.169920
0.160160
0.160160
0.160160
0.166020
0.169920
0.160160
0.134770
0.105470
0.246090
0.484380
0.740230
0.789060
0.474610
0.201170
0.121090
0.134770
0.121090
0.111330
0.105470
0.099609
0.111330
0.105470
0.105470
0.105470
0.099609
0.111330
0.105470
0.121090
0.111330
0.105470
0.105470
0.111330
0.115230
0.111330
0.099609
0.105470
0.105470
0.105470
0.099609
0.115230
0.130860
0.150390
0.150390
0.160160
0.169920
0.179690
0.189450
0.201170
0.195310
0.189450
0.201170
0.175780
0.195310
0.189450
0.195310
0.195310
0.189450
0.189450
0.195310
0.179690
0.175780
0.189450
0.201170
0.201170
0.220700
0.234380
0.246090
0.246090
0.234380
0.230470
0.220700
0.195310
0.175780
0.175780
0.169920
0.156250
0.156250
0.160160
0.150390
0.160160
0.150390
0.156250
0.156250
0.115230
0.140620
0.300780
0.554690
0.775390
0.695310
0.380860
0.130860
0.105470
0.130860
0.115230
0.111330
0.105470
0.111330
0.095703
0.111330
0.105470
0.111330
0.105470
0.111330
0.115230
0.125000
0.121090
0.125000
0.130860
0.111330
0.105470
0.115230
0.105470
0.121090
0.111330
0.115230
0.121090
0.130860
0.144530
0.160160
0.160160
0.175780
0.179690
0.189450
0.195310
0.201170
0.201170
0.201170
0.205080
0.201170
0.205080
0.201170
0.195310
0.201170
0.201170
0.189450
0.201170
0.201170
0.195310
0.201170
0.189450
0.220700
0.240230
0.246090
0.265620
0.255860
0.250000
0.259770
0.224610
0.210940
0.201170
0.195310
0.185550
0.175780
0.179690
0.166020
0.166020
0.175780
0.166020
0.175780
0.150390
0.121090
0.160160
0.339840
0.605470
0.789060
0.650390
0.320310
0.121090
0.150390
0.134770
0.130860
0.115230
0.105470
0.115230
0.111330
0.125000
0.111330
0.130860
0.121090
0.121090
0.130860
0.134770
0.125000
0.121090
0.121090
0.125000
0.115230
0.125000
0.121090
0.130860
0.125000
0.130860
0.130860
0.140620
0.156250
0.169920
0.179690
0.185550
0.189450
0.201170
0.205080
0.214840
0.210940
0.201170
0.205080
0.205080
0.201170
0.201170
0.205080
0.201170
0.201170
0.201170
0.205080
0.201170
0.205080
0.201170
0.220700
0.230470
0.240230
0.255860
0.259770
0.255860
0.250000
0.259770
0.220700
0.201170
0.189450
0.195310
0.185550
0.175780
0.166020
0.169920
0.169920
0.166020
0.175780
0.175780
0.156250
0.115230
0.169920
0.365230
0.634770
0.789060
0.605470
0.294920
0.111330
0.144530
0.150390
0.130860
0.125000
0.125000
0.130860
0.115230
0.130860
0.121090
0.130860
0.121090
0.130860
0.115230
0.130860
0.130860
0.134770
0.130860
0.134770
0.130860
0.134770
0.130860
0.130860
0.130860
0.134770
0.140620
0.150390
0.150390
0.166020
0.175780
0.189450
0.201170
0.205080
0.210940
0.214840
0.214840
0.224610
0.220700
0.214840
0.214840
0.210940
0.214840
0.201170
0.210940
0.214840
0.220700
0.210940
0.214840
0.220700
0.214840
0.234380
0.246090
0.265620
0.269530
0.265620
0.255860
0.246090
0.224610
0.210940
0.205080
0.205080
0.195310
0.185550
0.175780
0.185550
0.175780
0.175780
0.185550
0.185550
0.166020
0.130860
0.201170
0.410160
0.669920
0.779300
0.564450
0.259770
0.115230
0.150390
0.144530
0.130860
0.125000
0.130860
0.130860
0.130860
0.130860
0.130860
0.140620
0.140620
0.140620
0.144530
0.144530
0.134770
0.130860
0.140620
0.130860
0.125000
0.130860
0.130860
0.134770
0.134770
0.140620
0.144530
0.140620
0.160160
0.166020
0.179690
0.201170
0.205080
0.210940
0.210940
0.220700
0.220700
0.214840
0.220700
0.210940
0.224610
0.214840
0.205080
0.210940
0.220700
0.210940
0.224610
0.214840
0.224610
0.220700
0.224610
0.234380
0.246090
0.259770
0.265620
0.275390
0.259770
0.255860
0.240230
0.220700
0.210940
0.201170
0.189450
0.189450
0.179690
0.175780
0.175780
0.185550
0.175780
0.179690
0.185550
0.134770
0.130860
0.310550
0.574220
0.775390
0.679690
0.349610
0.125000
0.121090
0.150390
0.130860
0.134770
0.125000
0.121090
0.130860
0.125000
0.130860
0.130860
0.125000
0.140620
0.134770
0.130860
0.134770
0.144530
0.130860
0.134770
0.125000
0.130860
0.134770
0.130860
0.134770
0.130860
0.140620
0.150390
0.166020
0.160160
0.185550
0.195310
0.210940
0.220700
0.224610
0.214840
0.224610
0.220700
0.214840
0.214840
0.224610
0.214840
0.210940
0.220700
0.210940
0.224610
0.214840
0.220700
0.214840
0.214840
0.224610
0.240230
0.246090
0.269530
0.275390
0.265620
0.259770
0.265620
0.240230
0.224610
0.205080
0.205080
0.189450
0.189450
0.179690
0.189450
0.179690
0.189450
0.179690
0.179690
0.175780
0.140620
0.125000
0.250000
0.484380
0.734380
0.785160
0.445310
0.175780
0.115230
0.144530
0.134770
0.140620
0.130860
0.130860
0.130860
0.134770
0.134770
0.140620
0.134770
0.140620
0.134770
0.140620
0.140620
0.134770
0.140620
0.134770
0.140620
0.130860
0.134770
0.130860
0.134770
0.130860
0.140620
0.150390
0.160160
0.169920
0.179690
0.195310
0.201170
0.210940
0.224610
0.224610
0.214840
0.214840
0.224610
0.220700
0.224610
0.214840
0.214840
0.220700
0.224610
0.224610
0.214840
0.220700
0.224610
0.220700
0.224610
0.230470
0.246090
0.265620
0.275390
0.285160
0.269530
0.269530
0.265620
0.246090
0.224610
0.224610
0.214840
0.210940
0.210940
0.214840
0.205080
0.210940
0.210940
0.205080
0.201170
0.185550
0.156250
0.250000
0.455080
0.720700
0.798830
0.554690
0.255860
0.134770
0.189450
0.195310
0.185550
0.179690
0.179690
0.175780
0.175780
0.175780
0.185550
0.189450
0.189450
0.195310
0.201170
0.195310
0.205080
0.195310
0.189450
0.195310
0.189450
0.201170
0.195310
0.201170
0.201170
0.201170
0.205080
0.214840
0.214840
0.234380
0.246090
0.255860
0.255860
0.269530
0.269530
0.269530
0.269530
0.275390
0.269530
0.275390
0.269530
0.275390
0.265620
0.259770
0.269530
0.259770
0.265620
0.269530
0.269530
0.275390
0.285160
0.279300
0.300780
0.304690
0.335940
0.335940
0.339840
0.320310
0.314450
0.304690
0.285160
0.265620
0.259770
0.255860
0.246090
0.246090
0.246090
0.246090
0.240230
0.255860
0.234380
0.240230
0.175780
0.234380
0.425780
0.705080
0.875000
0.724610
0.349610
0.150390
0.166020
0.179690
0.185550
0.175780
0.179690
0.185550
0.195310
0.201170
0.185550
0.195310
0.201170
0.189450
0.179690
0.189450
0.195310
0.189450
0.195310
0.185550
0.189450
0.179690
0.175780
0.179690
0.175780
0.179690
0.195310
0.201170
0.210940
0.224610
0.240230
0.240230
0.246090
0.246090
0.250000
0.255860
0.259770
0.255860
0.250000
0.250000
0.246090
0.234380
0.224610
0.230470
0.224610
0.224610
0.230470
0.224610
0.224610
0.234380
0.224610
0.246090
0.255860
0.269530
0.279300
0.291020
0.285160
0.291020
0.269530
0.265620
0.230470
0.214840
0.220700
0.205080
0.205080
0.195310
0.201170
0.195310
0.205080
0.201170
0.195310
0.160160
0.125000
0.201170
0.429690
0.724610
0.894530
0.708980
0.314450
0.080078
0.076172
0.089844
0.111330
0.121090
0.130860
0.121090
0.130860
0.130860
0.125000
0.130860
0.134770
0.130860
0.134770
0.130860
0.134770
0.130860
0.125000
0.134770
0.134770
0.134770
0.134770
0.140620
0.130860
0.140620
0.144530
0.160160
0.166020
0.195310
0.201170
0.205080
0.214840
0.224610
0.230470
0.230470
0.234380
0.224610
0.220700
0.214840
0.210940
0.201170
0.201170
0.189450
0.185550
0.185550
0.195310
0.185550
0.195310
0.189450
0.201170
0.201170
0.214840
0.230470
0.250000
0.246090
0.246090
0.246090
0.246090
0.220700
0.195310
0.185550
0.185550
0.175780
0.169920
0.166020
0.160160
0.169920
0.175780
0.169920
0.160160
0.134770
0.105470
0.224610
0.470700
0.775390
0.859380
0.595700
0.234380
0.089844
0.095703
0.089844
0.099609
0.099609
0.095703
0.099609
0.105470
0.105470
0.105470
0.111330
0.105470
0.111330
0.115230
0.115230
0.111330
0.105470
0.111330
0.111330
0.115230
0.105470
0.105470
0.105470
0.111330
0.111330
0.121090
0.125000
0.140620
0.150390
0.169920
0.175780
0.189450
0.195310
0.201170
0.201170
0.201170
0.195310
0.201170
0.189450
0.195310
0.201170
0.179690
0.185550
0.179690
0.185550
0.189450
0.189450
0.189450
0.201170
0.205080
0.220700
0.224610
0.246090
0.234380
0.234380
0.224610
0.220700
0.205080
0.189450
0.175780
0.175780
0.169920
0.169920
0.175780
0.169920
0.175780
0.166020
0.169920
0.160160
0.134770
0.121090
0.265620
0.515620
0.789060
0.849610
0.515620
0.230470
0.130860
0.130860
0.125000
0.111330
0.115230
0.105470
0.111330
0.115230
0.121090
0.125000
0.121090
0.125000
0.121090
0.111330
0.115230
0.115230
0.111330
0.121090
0.111330
0.115230
0.111330
0.115230
0.115230
0.121090
0.125000
0.130860
0.130860
0.156250
0.166020
0.175780
0.185550
0.201170
0.205080
0.210940
0.214840
0.210940
0.205080
0.210940
0.201170
0.195310
0.201170
0.189450
0.195310
0.195310
0.195310
0.185550
0.189450
0.179690
0.189450
0.189450
0.195310
0.205080
0.214840
0.224610
0.240230
0.234380
0.224610
0.230470
0.220700
0.201170
0.189450
0.179690
0.175780
0.166020
0.160160
0.166020
0.160160
0.160160
0.156250
0.160160
0.150390
0.125000
0.115230
0.294920
0.560550
0.798830
0.814450
0.425780
0.160160
0.111330
0.125000
0.115230
0.105470
0.099609
0.099609
0.099609
0.099609
0.099609
0.115230
0.111330
0.115230
0.111330
0.111330
0.105470
0.111330
0.105470
0.111330
0.099609
0.105470
0.105470
0.105470
0.099609
0.105470
0.105470
0.111330
0.125000
0.140620
0.150390
0.160160
0.169920
0.179690
0.185550
0.189450
0.195310
0.175780
0.185550
0.179690
0.189450
0.185550
0.189450
0.179690
0.179690
0.175780
0.185550
0.185550
0.179690
0.175780
0.185550
0.195310
0.205080
0.224610
0.240230
0.230470
0.224610
0.224610
0.210940
0.195310
0.179690
0.179690
0.175780
0.166020
0.156250
0.156250
0.150390
0.160160
0.150390
0.150390
0.150390
0.125000
0.105470
0.259770
0.490230
0.759770
0.804690
0.474610
0.185550
0.115230
0.130860
0.111330
0.105470
0.099609
0.105470
0.099609
0.105470
0.105470
0.111330
0.105470
0.115230
0.111330
0.111330
0.115230
0.121090
0.111330
0.111330
0.105470
0.111330
0.105470
0.105470
0.105470
0.105470
0.115230
0.125000
0.134770
0.144530
0.150390
0.160160
0.169920
0.175780
0.179690
0.185550
0.195310
0.189450
0.195310
0.185550
0.195310
0.189450
0.195310
0.185550
0.195310
0.175780
0.189450
0.185550
0.179690
0.185550
0.195310
0.201170
0.214840
0.230470
0.240230
0.224610
0.224610
0.230470
0.205080
0.195310
0.179690
0.179690
0.169920
0.160160
0.160160
0.160160
0.160160
0.169920
0.160160
0.156250
0.144530
0.111330
0.150390
0.324220
0.599610
0.794920
0.685550
0.359380
0.130860
0.121090
0.140620
0.115230
0.105470
0.105470
0.105470
0.099609
0.115230
0.111330
0.121090
0.121090
0.115230
0.111330
0.121090
0.115230
0.125000
0.105470
0.111330
0.121090
0.111330
0.111330
0.105470
0.105470
0.111330
0.111330
0.125000
0.130860
0.140620
0.160160
0.169920
0.175780
0.179690
0.201170
0.201170
0.195310
0.195310
0.195310
0.185550
0.201170
0.195310
0.195310
0.185550
0.195310
0.185550
0.195310
0.185550
0.195310
0.189450
0.201170
0.220700
0.240230
0.246090
0.246090
0.230470
0.240230
0.230470
0.214840
0.195310
0.185550
0.189450
0.175780
0.166020
0.160160
0.166020
0.169920
0.166020
0.160160
0.175780
0.144530
0.115230
0.179690
0.390620
0.664060
0.798830
0.599610
0.291020
0.125000
0.144530
0.130860
0.115230
0.115230
0.111330
0.111330
0.105470
0.125000
0.125000
0.130860
0.130860
0.130860
0.125000
0.130860
0.130860
0.121090
0.115230
0.125000
0.130860
0.121090
0.125000
0.111330
0.125000
0.115230
0.130860
0.140620
0.150390
0.160160
0.175780
0.175780
0.195310
0.201170
0.205080
0.210940
0.214840
0.201170
0.210940
0.205080
0.210940
0.201170
0.205080
0.201170
0.201170
0.195310
0.205080
0.201170
0.195310
0.201170
0.214840
0.224610
0.234380
0.250000
0.246090
0.265620
0.246090
0.240230
0.220700
0.205080
0.201170
0.195310
0.179690
0.175780
0.175780
0.175780
0.175780
0.179690
0.175780
0.169920
0.175780
0.130860
0.169920
0.365230
0.619140
0.794920
0.650390
0.335940
0.130860
0.150390
0.156250
0.140620
0.125000
0.125000
0.140620
0.130860
0.134770
0.130860
0.134770
0.134770
0.140620
0.134770
0.140620
0.140620
0.134770
0.140620
0.130860
0.140620
0.134770
0.130860
0.130860
0.134770
0.130860
0.150390
0.150390
0.156250
0.169920
0.179690
0.201170
0.205080
0.201170
0.224610
0.224610
0.224610
0.214840
0.220700
0.214840
0.220700
0.214840
0.214840
0.201170
0.214840
0.220700
0.214840
0.220700
0.214840
0.210940
0.224610
0.234380
0.250000
0.265620
0.265620
0.269530
0.255860
0.259770
0.234380
0.214840
0.201170
0.201170
0.189450
0.195310
0.185550
0.185550
0.179690
0.179690
0.175780
0.179690
0.169920
0.134770
0.130860
0.314450
0.580080
0.789060
0.695310
0.371090
0.134770
0.125000
0.156250
0.134770
0.130860
0.125000
0.130860
0.121090
0.140620
0.130860
0.134770
0.130860
0.140620
0.130860
0.140620
0.134770
0.140620
0.134770
0.140620
0.144530
0.134770
0.134770
0.140620
0.144530
0.140620
0.144530
0.144530
0.160160
0.166020
0.179690
0.189450
0.201170
0.210940
0.220700
0.220700
0.224610
0.220700
0.224610
0.214840
0.214840
0.214840
0.210940
0.214840
0.214840
0.220700
0.210940
0.224610
0.214840
0.220700
0.230470
0.246090
0.255860
0.269530
0.269530
0.275390
0.265620
0.269530
0.240230
0.224610
0.210940
0.214840
0.201170
0.195310
0.185550
0.179690
0.185550
0.189450
0.189450
0.189450
0.175780
0.140620
0.130860
0.310550
0.564450
0.779300
0.789060
0.390620
0.150390
0.125000
0.160160
0.150390
0.140620
