0.416420
0.411530
0.406650
0.400780
0.394920
0.389050
0.384160
0.379280
0.375370
0.372430
0.370480
0.366570
0.363640
0.360700
0.356790
0.352880
0.348970
0.345060
0.340180
0.335290
0.330400
0.326490
0.323560
0.321600
0.319650
0.317690
0.315740
0.314760
0.315740
0.317690
0.322580
0.328450
0.337240
0.347020
0.356790
0.367550
0.381230
0.395890
0.412510
0.430110
0.447700
0.464320
0.478980
0.492670
0.504400
0.514170
0.520040
0.525900
0.530790
0.535680
0.540570
0.546430
0.551320
0.555230
0.559140
0.564030
0.565980
0.566960
0.565980
0.563050
0.559140
0.552300
0.545450
0.536660
0.526880
0.518080
0.507330
0.497560
0.487780
0.478980
0.472140
0.467250
0.462370
0.456500
0.450640
0.443790
0.435970
0.428150
0.420330
0.413490
0.407620
0.402740
0.397850
0.392960
0.390030
0.385140
0.380250
0.375370
0.369500
0.364610
0.359730
0.355820
0.351910
0.348000
0.344090
0.342130
0.341150
0.337240
0.332360
0.327470
0.322580
0.318670
0.315740
0.313780
0.313780
0.317690
0.324540
0.335290
0.347020
0.358750
0.384160
0.402740
0.421310
0.448680
0.464320
0.478980
0.491690
0.503420
0.514170
0.522970
0.531770
0.539590
0.548390
0.557180
0.565980
0.572830
0.578690
0.583580
0.586510
0.588470
0.590420
0.589440
0.587490
0.585530
0.581620
0.576740
0.571850
0.566960
0.560120
0.554250
0.546430
0.538610
0.530790
0.522970
0.516130
0.510260
0.502440
0.494620
0.485830
0.478010
0.470190
0.463340
0.455520
0.447700
0.440860
0.433040
0.426200
0.420330
0.417400
0.426200
0.439880
0.445750
0.445750
0.442820
0.438910
0.434020
0.428150
0.424240
0.419350
0.414470
0.411530
0.408600
0.404690
0.400780
0.397850
0.392960
0.389050
0.384160
0.381230
0.379280
0.379280
0.381230
0.387100
0.395890
0.406650
0.420330
0.435970
0.451610
0.468230
0.484850
0.501470
0.518080
0.534700
0.550340
0.563050
0.574780
0.587490
0.600200
0.612900
0.623660
0.633430
0.642230
0.648090
0.652980
0.657870
0.661780
0.664710
0.666670
0.669600
0.671550
0.673510
0.672530
0.670580
0.667640
0.661780
0.654940
0.646140
0.636360
0.627570
0.619750
0.611930
0.604110
0.595310
0.586510
0.577710
0.568910
0.559140
0.550340
0.542520
0.534700
0.527860
0.521020
0.515150
0.508310
0.501470
0.493650
0.485830
0.478980
0.472140
0.467250
0.462370
0.458460
0.455520
0.451610
0.448680
0.445750
0.440860
0.435970
0.430110
0.424240
0.417400
0.411530
0.406650
0.401760
0.398830
0.396870
0.396870
0.397850
0.401760
0.406650
0.413490
0.424240
0.437930
0.453570
0.472140
0.490710
0.509290
0.526880
0.544480
0.558160
0.569890
0.581620
0.594330
0.606060
0.617790
0.629520
0.640270
0.651030
0.661780
0.670580
0.678400
0.682310
0.685240
0.687190
0.688170
0.687190
0.685240
0.683280
0.680350
0.677420
0.673510
0.669600
0.663730
0.656890
0.650050
0.641250
0.632450
0.623660
0.614860
0.606060
0.597260
0.588470
0.579670
0.570870
0.562070
0.552300
0.544480
0.537630
0.530790
0.523950
0.518080
0.512220
0.507330
0.501470
0.496580
0.490710
0.484850
0.478010
0.471160
0.465300
0.460410
0.455520
0.450640
0.446730
0.442820
0.438910
0.435000
0.432060
0.428150
0.425220
0.421310
0.418380
0.416420
0.414470
0.413490
0.413490
0.416420
0.422290
0.430110
0.442820
0.458460
0.475070
0.493650
0.513200
0.529810
0.544480
0.561090
0.577710
0.593350
0.608990
0.623660
0.636360
0.647120
0.655910
0.664710
0.671550
0.676440
0.681330
0.686220
0.691100
0.695990
0.699900
0.701860
0.701860
0.699900
0.695990
0.690130
0.684260
0.677420
0.670580
0.664710
0.656890
0.648090
0.638320
0.629520
0.621700
0.613880
0.605080
0.597260
0.588470
0.579670
0.572830
0.566960
0.560120
0.553270
0.546430
0.539590
0.531770
0.524930
0.519060
0.513200
0.507330
0.502440
0.497560
0.492670
0.486800
0.480940
0.476050
0.470190
0.466280
0.462370
0.458460
0.453570
0.448680
0.444770
0.440860
0.437930
0.435970
0.433040
0.431090
0.430110
0.431090
0.434020
0.439880
0.448680
0.450640
0.449660
0.458460
0.469210
0.479960
0.494620
0.510260
0.524930
0.540570
0.555230
0.568910
0.581620
0.592380
0.603130
0.612900
0.620720
0.626590
0.631480
0.636360
0.642230
0.647120
0.651030
0.653960
0.654940
0.654940
0.652000
0.648090
0.643210
0.638320
0.632450
0.626590
0.620720
0.612900
0.604110
0.595310
0.585530
0.576740
0.567940
0.559140
0.550340
0.542520
0.535680
0.530790
0.524930
0.519060
0.512220
0.505380
0.499510
0.493650
0.488760
0.483870
0.478980
0.474100
0.470190
0.464320
0.458460
0.452590
0.447700
0.442820
0.437930
0.433040
0.429130
0.425220
0.421310
0.418380
0.414470
0.412510
0.409580
0.407620
0.403710
0.401760
0.400780
0.400780
0.402740
0.407620
0.414470
0.425220
0.436950
0.450640
0.463340
0.479960
0.496580
0.514170
0.530790
0.546430
0.561090
0.575760
0.587490
0.598240
0.607040
0.613880
0.618770
0.622680
0.627570
0.633430
0.638320
0.643210
0.648090
0.652000
0.653960
0.654940
0.652980
0.650050
0.646140
0.641250
0.637340
0.632450
0.625610
0.617790
0.608990
0.599220
0.588470
0.578690
0.568910
0.559140
0.550340
0.543500
0.537630
0.531770
0.525900
0.520040
0.514170
0.507330
0.500490
0.493650
0.487780
0.481920
0.476050
0.472140
0.468230
0.463340
0.459430
0.454550
0.449660
0.445750
0.442820
0.439880
0.435970
0.433040
0.429130
0.425220
0.422290
0.419350
0.415440
0.410560
0.406650
0.402740
0.399800
0.397850
0.399800
0.404690
0.412510
0.423260
0.435000
0.445750
0.459430
0.472140
0.485830
0.499510
0.514170
0.528840
0.544480
0.559140
0.573800
0.585530
0.597260
0.606060
0.613880
0.621700
0.628540
0.634410
0.639300
0.644180
0.647120
0.649070
0.651030
0.651030
0.651030
0.649070
0.645160
0.641250
0.637340
0.632450
0.626590
0.619750
0.610950
0.601170
0.593350
0.586510
0.580650
0.573800
0.566960
0.560120
0.553270
0.544480
0.535680
0.528840
0.521990
0.517110
0.512220
0.507330
0.501470
0.495600
0.489740
0.484850
0.479960
0.474100
0.469210
0.464320
0.459430
0.454550
0.449660
0.445750
0.442820
0.438910
0.435970
0.432060
0.429130
0.427170
0.424240
0.421310
0.418380
0.416420
0.414470
0.412510
0.412510
0.412510
0.413490
0.417400
0.423260
0.433040
0.445750
0.460410
0.477030
0.495600
0.513200
0.529810
0.546430
0.561090
0.575760
0.587490
0.596290
0.606060
0.614860
0.622680
0.629520
0.634410
0.638320
0.642230
0.646140
0.649070
0.651030
0.652980
0.653960
0.652980
0.651030
0.646140
0.639300
0.632450
0.624630
0.616810
0.607040
0.596290
0.584560
0.573800
0.564030
0.555230
0.546430
0.538610
0.530790
0.521990
0.513200
0.505380
0.496580
0.488760
0.481920
0.476050
0.471160
0.467250
0.463340
0.460410
0.455520
0.450640
0.444770
0.438910
0.433040
0.426200
0.419350
0.413490
0.407620
0.401760
0.397850
0.391980
0.387100
0.382210
0.378300
0.373410
0.369500
0.365590
0.362660
0.359730
0.359730
0.362660
0.366570
0.372430
0.379280
0.389050
0.401760
0.417400
0.435000
0.453570
0.473120
0.492670
0.511240
0.529810
0.545450
0.559140
0.571850
0.584560
0.597260
0.608990
0.617790
0.626590
0.633430
0.639300
0.643210
0.645160
0.645160
0.643210
0.640270
0.636360
0.633430
0.630500
0.627570
0.623660
0.618770
0.611930
0.602150
0.592380
0.581620
0.571850
0.564030
0.556210
0.547410
0.537630
0.527860
0.519060
0.512220
0.505380
0.499510
0.493650
0.487780
0.480940
0.475070
0.468230
0.461390
0.453570
0.446730
0.441840
0.436950
0.433040
0.428150
0.422290
0.416420
0.410560
0.405670
0.401760
0.395890
0.391980
0.387100
0.382210
0.379280
0.376340
0.373410
0.369500
0.366570
0.364610
0.364610
0.364610
0.366570
0.369500
0.376340
0.386120
0.398830
0.414470
0.434020
0.452590
0.473120
0.492670
0.512220
0.528840
0.543500
0.559140
0.572830
0.585530
0.595310
0.604110
0.612900
0.620720
0.627570
0.634410
0.640270
0.646140
0.648090
0.650050
0.651030
0.651030
0.649070
0.645160
0.639300
0.632450
0.623660
0.613880
0.602150
0.591400
0.580650
0.570870
0.562070
0.553270
0.545450
0.537630
0.528840
0.519060
0.510260
0.502440
0.495600
0.488760
0.482890
0.478010
0.473120
0.466280
0.459430
0.452590
0.445750
0.439880
0.433040
0.428150
0.423260
0.419350
0.415440
0.412510
0.409580
0.406650
0.402740
0.397850
0.392960
0.388070
0.384160
0.380250
0.375370
0.371460
0.366570
0.362660
0.360700
0.358750
0.359730
0.364610
0.372430
0.382210
0.394920
0.410560
0.426200
0.442820
0.458460
0.476050
0.490710
0.505380
0.521990
0.538610
0.555230
0.568910
0.582600
0.594330
0.604110
0.612900
0.620720
0.625610
0.628540
0.629520
0.631480
0.632450
0.632450
0.631480
0.630500
0.628540
0.624630
0.620720
0.613880
0.607040
0.599220
0.591400
0.584560
0.577710
0.570870
0.563050
0.554250
0.545450
0.534700
0.523950
0.514170
0.506350
0.499510
0.494620
0.490710
0.485830
0.479960
0.473120
0.465300
0.457480
0.450640
0.443790
0.437930
0.430110
0.421310
0.415440
0.410560
0.406650
0.403710
0.399800
0.395890
0.391010
0.387100
0.383190
0.378300
0.375370
0.372430
0.369500
0.367550
0.364610
0.362660
0.361680
0.361680
0.363640
0.368520
0.375370
0.386120
0.400780
0.417400
0.435970
0.454550
0.470190
0.484850
0.500490
0.516130
0.530790
0.545450
0.559140
0.572830
0.585530
0.597260
0.608020
0.616810
0.622680
0.627570
0.631480
0.634410
0.637340
0.638320
0.638320
0.636360
0.633430
0.629520
0.623660
0.616810
0.608990
0.601170
0.593350
0.584560
0.574780
0.565980
0.558160
0.549360
0.541540
0.533720
0.523950
0.514170
0.505380
0.497560
0.490710
0.481920
0.473120
0.464320
0.457480
0.451610
0.445750
0.439880
0.434020
0.429130
0.424240
0.419350
0.416420
0.414470
0.411530
0.407620
0.402740
0.396870
0.391010
0.385140
0.378300
0.372430
0.367550
0.362660
0.359730
0.357770
0.355820
0.353860
0.352880
0.352880
0.352880
0.356790
0.363640
0.374390
0.388070
0.404690
0.423260
0.439880
0.456500
0.475070
0.493650
0.511240
0.528840
0.544480
0.558160
0.569890
0.579670
0.589440
0.599220
0.607040
0.613880
0.620720
0.627570
0.631480
0.632450
0.632450
0.632450
0.632450
0.631480
0.628540
0.624630
0.618770
0.611930
0.604110
0.594330
0.583580
0.573800
0.564030
0.555230
0.545450
0.536660
0.527860
0.519060
0.510260
0.504400
0.498530
0.491690
0.484850
0.478980
0.474100
0.469210
0.465300
0.460410
0.456500
0.451610
0.446730
0.440860
0.436950
0.430110
0.421310
0.411530
0.401760
0.391980
0.383190
0.376340
0.371460
0.369500
0.367550
0.366570
0.365590
0.364610
0.362660
0.360700
0.358750
0.357770
0.356790
0.356790
0.359730
0.363640
0.370480
0.379280
0.389050
0.400780
0.416420
0.434020
0.453570
0.473120
0.491690
0.508310
0.521990
0.532750
0.541540
0.549360
0.556210
0.562070
0.565000
0.568910
0.573800
0.577710
0.581620
0.584560
0.586510
0.586510
0.585530
0.581620
0.576740
0.570870
0.565000
0.558160
0.550340
0.540570
0.530790
0.521020
0.510260
0.501470
0.492670
0.483870
0.475070
0.467250
0.459430
0.452590
0.445750
0.438910
0.431090
0.423260
0.415440
0.405670
0.396870
0.388070
0.380250
0.373410
0.369500
0.366570
0.363640
0.361680
0.358750
0.355820
0.351910
0.347020
0.342130
0.337240
0.333330
0.328450
0.324540
0.321600
0.318670
0.314760
0.310850
0.304990
0.300100
0.295210
0.292280
0.290320
0.290320
0.291300
0.296190
0.301080
0.307920
0.317690
0.329420
0.357770
0.394920
0.421310
0.442820
0.461390
0.477030
0.491690
0.505380
0.517110
0.525900
0.531770
0.537630
0.542520
0.547410
0.552300
0.556210
0.559140
0.561090
0.563050
0.564030
0.563050
0.562070
0.561090
0.560120
0.557180
0.553270
0.548390
0.542520
0.535680
0.527860
0.520040
0.510260
0.500490
0.490710
0.482890
0.475070
0.468230
0.461390
0.455520
0.450640
0.444770
0.439880
0.435000
0.430110
0.426200
0.421310
0.416420
0.412510
0.406650
0.400780
0.394920
0.390030
0.385140
0.381230
0.378300
0.374390
0.371460
0.367550
0.363640
0.360700
0.358750
0.356790
0.354840
0.351910
0.348970
0.345060
0.340180
0.336270
0.331380
0.327470
0.325510
0.325510
0.329420
0.334310
0.343110
0.354840
0.367550
0.382210
0.397850
0.413490
0.429130
0.444770
0.459430
0.473120
0.483870
0.493650
0.503420
0.512220
0.520040
0.526880
0.531770
0.537630
0.542520
0.547410
0.552300
0.555230
0.557180
0.558160
0.559140
0.558160
0.555230
0.551320
0.545450
0.538610
0.531770
0.524930
0.518080
0.511240
0.504400
0.498530
0.491690
0.484850
0.478010
0.470190
0.462370
0.454550
0.447700
0.440860
0.434020
0.428150
0.422290
0.418380
0.414470
0.409580
0.404690
0.399800
0.395890
0.391980
0.388070
0.383190
0.377320
0.371460
0.366570
0.361680
0.356790
0.352880
0.348000
0.343110
0.338220
0.335290
0.333330
0.331380
0.329420
0.327470
0.326490
0.324540
0.323560
0.323560
0.324540
0.327470
0.333330
0.341150
0.351910
0.365590
0.381230
0.396870
0.414470
0.431090
0.445750
0.458460
0.471160
0.484850
0.497560
0.510260
0.521020
0.530790
0.539590
0.546430
0.552300
0.557180
0.560120
0.563050
0.565000
0.567940
0.569890
0.570870
0.569890
0.568910
0.565980
0.562070
0.557180
0.552300
0.545450
0.539590
0.532750
0.525900
0.518080
0.508310
0.498530
0.488760
0.478980
0.471160
0.463340
0.457480
0.451610
0.446730
0.440860
0.435970
0.431090
0.425220
0.420330
0.415440
0.410560
0.405670
0.400780
0.395890
0.391010
0.387100
0.384160
0.381230
0.377320
0.373410
0.369500
0.364610
0.361680
0.357770
0.353860
0.349950
0.346040
0.343110
0.340180
0.339200
0.339200
0.339200
0.343110
0.348970
0.357770
0.369500
0.383190
0.398830
0.415440
0.434020
0.451610
0.466280
0.478980
0.491690
0.505380
0.518080
0.530790
0.541540
0.552300
0.562070
0.570870
0.578690
0.585530
0.590420
0.594330
0.597260
0.600200
0.603130
0.605080
0.606060
0.605080
0.603130
0.600200
0.596290
0.599220
0.605080
0.605080
0.601170
0.595310
0.588470
0.580650
0.572830
0.565000
0.556210
0.548390
0.539590
0.530790
0.521020
0.513200
0.505380
0.499510
0.491690
0.484850
0.478010
0.473120
0.467250
0.463340
0.459430
0.456500
0.453570
0.449660
0.445750
0.441840
0.436950
0.431090
0.425220
0.420330
0.415440
0.410560
0.406650
0.401760
0.396870
0.393940
0.391010
0.390030
0.390030
0.391010
0.392960
0.395890
0.399800
0.405670
0.414470
0.426200
0.440860
0.456500
0.474100
0.489740
0.503420
0.519060
0.534700
0.550340
0.565000
0.579670
0.592380
0.605080
0.615840
0.624630
0.632450
0.639300
0.643210
0.647120
0.652000
0.654940
0.658850
0.661780
0.664710
0.665690
0.666670
0.664710
0.662760
0.658850
0.654940
0.649070
0.643210
0.635390
0.625610
0.615840
0.606060
0.597260
0.588470
0.579670
0.571850
0.564030
0.558160
0.552300
0.545450
0.536660
0.527860
0.520040
0.513200
0.507330
0.501470
0.496580
0.490710
0.485830
0.480940
0.477030
0.473120
0.468230
0.464320
0.460410
0.456500
0.452590
0.448680
0.442820
0.437930
0.433040
0.427170
0.423260
0.419350
0.414470
0.410560
0.408600
0.405670
0.404690
0.404690
0.406650
0.411530
0.418380
0.427170
0.438910
0.451610
0.464320
0.479960
0.496580
0.513200
0.529810
0.546430
0.562070
0.577710
0.591400
0.604110
0.615840
0.624630
0.632450
0.641250
0.651030
0.658850
0.664710
0.670580
0.675460
0.678400
0.680350
0.681330
0.680350
0.679370
0.677420
0.673510
0.669600
0.663730
0.657870
0.651030
0.642230
0.633430
0.623660
0.614860
0.606060
0.597260
0.589440
0.581620
0.573800
0.566960
0.560120
0.553270
0.545450
0.537630
0.530790
0.523950
0.517110
0.512220
0.507330
0.503420
0.499510
0.495600
0.490710
0.484850
0.479960
0.474100
0.469210
0.464320
0.460410
0.456500
0.453570
0.450640
0.448680
0.444770
0.440860
0.436950
0.432060
0.427170
0.424240
0.423260
0.426200
0.431090
0.438910
0.449660
0.461390
0.473120
0.488760
0.505380
0.521990
0.538610
0.555230
0.570870
0.585530
0.600200
0.612900
0.623660
0.632450
0.639300
0.646140
0.652000
0.658850
0.664710
0.669600
0.672530
0.675460
0.677420
0.678400
0.678400
0.677420
0.675460
0.672530
0.669600
0.665690
0.661780
0.656890
0.651030
0.643210
0.633430
0.623660
0.612900
0.603130
0.594330
0.586510
0.578690
0.570870
0.564030
0.557180
0.550340
0.543500
0.536660
0.529810
0.522970
0.517110
0.511240
0.505380
0.500490
0.494620
0.488760
0.475070
0.457480
0.447700
0.441840
0.436950
0.433040
0.430110
0.426200
0.424240
0.421310
0.418380
0.415440
0.412510
0.409580
0.407620
0.406650
0.406650
0.407620
0.411530
0.417400
0.426200
0.435970
0.447700
0.462370
0.478980
0.494620
0.510260
0.525900
0.540570
0.554250
0.566960
0.578690
0.589440
0.598240
0.606060
0.613880
0.621700
0.628540
0.634410
0.639300
0.642230
0.645160
0.646140
0.646140
0.645160
0.644180
0.642230
0.640270
0.637340
0.633430
0.629520
0.623660
0.616810
0.608990
0.600200
0.590420
0.581620
0.573800
0.566960
0.561090
0.555230
0.547410
0.540570
0.532750
0.525900
0.519060
0.512220
0.506350
0.499510
0.493650
0.487780
0.483870
0.478980
0.476050
0.472140
0.469210
0.465300
0.461390
0.457480
0.452590
0.447700
0.442820
0.437930
0.434020
0.432060
0.429130
0.426200
0.423260
0.420330
0.417400
0.415440
0.414470
0.414470
0.416420
0.420330
0.425220
0.433040
0.443790
0.457480
0.472140
0.487780
0.503420
0.519060
0.534700
0.551320
0.565980
0.579670
0.592380
0.602150
0.609970
0.616810
0.622680
0.627570
0.633430
0.638320
0.643210
0.648090
0.652000
0.654940
0.655910
0.655910
0.653960
0.651030
0.647120
0.642230
0.636360
0.629520
0.622680
0.615840
0.607040
0.598240
0.588470
0.579670
0.571850
0.565980
0.560120
0.555230
0.550340
0.545450
0.538610
0.531770
0.525900
0.519060
0.512220
0.506350
0.500490
0.496580
0.491690
0.486800
0.481920
0.478980
0.476050
0.472140
0.469210
0.465300
0.460410
0.455520
0.451610
0.447700
0.443790
0.439880
0.435000
0.431090
0.427170
0.424240
0.421310
0.420330
0.419350
0.419350
0.422290
0.426200
0.432060
0.440860
0.452590
0.466280
0.481920
0.496580
0.512220
0.526880
0.541540
0.554250
0.566960
0.579670
0.589440
0.599220
0.608990
0.618770
0.627570
0.635390
0.641250
0.646140
0.650050
0.652980
0.654940
0.655910
0.655910
0.653960
0.651030
0.647120
0.642230
0.637340
0.633430
0.627570
0.622680
0.615840
0.609970
0.603130
0.595310
0.587490
0.579670
0.571850
0.564030
0.557180
0.550340
0.543500
0.535680
0.528840
0.521990
0.516130
0.511240
0.506350
0.503420
0.499510
0.496580
0.492670
0.488760
0.482890
0.478010
0.473120
0.469210
0.465300
0.462370
0.458460
0.455520
0.452590
0.448680
0.444770
0.439880
0.435000
0.432060
0.430110
0.429130
0.429130
0.429130
0.429130
0.431090
0.434020
0.438910
0.445750
0.455520
0.468230
0.481920
0.497560
0.513200
0.528840
0.543500
0.550340
0.552300
0.558160
0.565000
0.573800
0.584560
0.593350
0.601170
0.607040
0.610950
0.612900
0.614860
0.615840
0.616810
0.615840
0.614860
0.612900
0.610950
0.608990
0.606060
0.603130
0.599220
0.596290
0.591400
0.585530
0.577710
0.566960
0.556210
0.546430
0.535680
0.525900
0.517110
0.508310
0.501470
0.495600
0.489740
0.484850
0.480940
0.476050
0.472140
0.468230
0.464320
0.458460
0.452590
0.446730
0.440860
0.435000
0.430110
0.424240
0.419350
0.415440
0.411530
0.409580
0.405670
0.402740
0.399800
0.396870
0.393940
0.390030
0.386120
0.382210
0.380250
0.378300
0.376340
0.377320
0.379280
0.383190
0.390030
0.399800
0.412510
0.428150
0.443790
0.461390
0.478010
0.494620
0.511240
0.524930
0.536660
0.547410
0.558160
0.568910
0.579670
0.589440
0.598240
0.604110
0.610950
0.615840
0.619750
0.622680
0.623660
0.624630
0.623660
0.622680
0.620720
0.616810
0.611930
0.605080
0.598240
0.590420
0.580650
0.570870
0.561090
0.554250
0.548390
0.542520
0.536660
0.530790
0.524930
0.518080
0.510260
0.502440
0.494620
0.487780
0.480940
0.477030
0.473120
0.468230
0.463340
0.458460
0.453570
0.447700
0.443790
0.439880
0.435970
0.432060
0.428150
0.424240
0.421310
0.418380
0.414470
0.409580
0.404690
0.398830
0.394920
0.391010
0.387100
0.385140
0.383190
0.382210
0.382210
0.382210
0.382210
0.384160
0.388070
0.393940
0.404690
0.418380
0.435000
0.452590
0.472140
0.489740
0.505380
0.519060
0.533720
0.547410
0.560120
0.570870
0.580650
0.589440
0.596290
0.602150
0.606060
0.609970
0.612900
0.614860
0.615840
0.616810
0.616810
0.614860
0.610950
0.607040
0.603130
0.598240
0.592380
0.586510
0.578690
0.571850
0.563050
0.554250
0.544480
0.534700
0.526880
0.520040
0.514170
0.508310
0.502440
0.496580
0.489740
0.482890
0.477030
0.471160
0.466280
0.460410
0.454550
0.448680
0.443790
0.439880
0.436950
0.434020
0.432060
0.429130
0.427170
0.425220
0.421310
0.416420
0.411530
0.406650
0.401760
0.398830
0.394920
0.391010
0.387100
0.383190
0.379280
0.376340
0.375370
0.374390
0.376340
0.380250
0.387100
0.395890
0.407620
0.420330
0.435000
0.451610
0.468230
0.481920
0.492670
0.504400
0.517110
0.528840
0.541540
0.552300
0.564030
0.574780
0.584560
0.593350
0.600200
0.607040
0.610950
0.612900
0.614860
0.615840
0.614860
0.611930
0.606060
0.600200
0.593350
0.586510
0.579670
0.572830
0.566960
0.561090
0.555230
0.549360
0.543500
0.537630
0.530790
0.522970
0.515150
0.506350
0.498530
0.491690
0.485830
0.480940
0.475070
0.469210
0.462370
0.455520
0.448680
0.442820
0.437930
0.435000
0.432060
0.430110
0.428150
0.426200
0.423260
0.420330
0.415440
0.410560
0.405670
0.399800
0.393940
0.387100
0.381230
0.375370
0.370480
0.368520
0.367550
0.366570
0.365590
0.365590
0.366570
0.369500
0.374390
0.383190
0.394920
0.407620
0.423260
0.439880
0.455520
0.470190
0.486800
0.503420
0.520040
0.535680
0.549360
0.562070
0.574780
0.585530
0.595310
0.603130
0.608020
0.611930
0.613880
0.615840
0.615840
0.616810
0.616810
0.616810
0.616810
0.615840
0.612900
0.608020
0.600200
0.591400
0.582600
0.573800
0.564030
0.556210
0.547410
0.539590
0.531770
0.523950
0.515150
0.506350
0.498530
0.492670
0.486800
0.480940
0.475070
0.470190
0.464320
0.458460
0.451610
0.443790
0.436950
0.432060
0.427170
0.423260
0.420330
0.417400
0.413490
0.408600
0.403710
0.397850
0.391980
0.386120
0.381230
0.377320
0.375370
0.373410
0.372430
0.371460
0.370480
0.369500
0.367550
0.366570
0.366570
0.367550
0.371460
0.378300
0.388070
0.401760
0.418380
0.434020
0.448680
0.466280
0.483870
0.499510
0.514170
0.527860
0.541540
0.554250
0.565980
0.575760
0.584560
0.591400
0.597260
0.603130
0.608020
0.611930
0.613880
0.615840
0.615840
0.615840
0.612900
0.609970
0.604110
0.597260
0.590420
0.583580
0.576740
0.568910
0.561090
0.553270
0.543500
0.534700
0.526880
0.519060
0.511240
0.502440
0.495600
0.488760
0.480940
0.474100
0.466280
0.460410
0.455520
0.450640
0.446730
0.442820
0.438910
0.435000
0.430110
0.426200
0.422290
0.416420
0.411530
0.405670
0.399800
0.393940
0.388070
0.383190
0.379280
0.376340
0.373410
0.372430
0.370480
0.369500
0.367550
0.364610
0.361680
0.359730
0.358750
0.359730
0.363640
0.369500
0.379280
0.391010
0.403710
0.417400
0.434020
0.451610
0.470190
0.488760
0.505380
0.520040
0.533720
0.544480
0.554250
0.562070
0.568910
0.574780
0.579670
0.584560
0.588470
0.590420
0.592380
0.591400
0.589440
0.586510
0.582600
0.576740
0.570870
0.565000
0.558160
0.551320
0.542520
0.532750
0.521990
0.510260
0.497560
0.486800
0.477030
0.469210
0.460410
0.453570
0.446730
0.439880
0.434020
0.428150
0.421310
0.415440
0.407620
0.399800
0.391980
0.385140
0.379280
0.375370
0.372430
0.368520
0.364610
0.360700
0.356790
0.352880
0.348000
0.342130
0.338220
0.334310
0.329420
0.334310
0.343110
0.346040
0.345060
0.341150
0.338220
0.334310
0.331380
0.328450
0.326490
0.326490
0.328450
0.332360
0.339200
0.348000
0.359730
0.373410
0.390030
0.406650
0.423260
0.439880
0.455520
0.471160
0.485830
0.498530
0.509290
0.517110
0.522970
0.528840
0.534700
0.540570
0.544480
0.549360
0.552300
0.555230
0.556210
0.556210
0.553270
0.549360
0.544480
0.539590
0.532750
0.525900
0.518080
0.511240
0.503420
0.495600
0.488760
0.480940
0.474100
0.467250
0.462370
0.457480
0.452590
0.447700
0.441840
0.435970
0.430110
0.423260
0.415440
0.409580
0.403710
0.397850
0.393940
0.391010
0.387100
0.384160
0.380250
0.376340
0.372430
0.368520
0.364610
0.359730
0.354840
0.349950
0.346040
0.344090
0.341150
0.338220
0.334310
0.329420
0.323560
0.318670
0.314760
0.311830
0.308900
0.307920
0.309870
0.312810
0.318670
0.326490
0.335290
0.346040
0.359730
0.374390
0.391010
0.407620
0.425220
0.441840
0.456500
0.471160
0.482890
0.493650
0.504400
0.514170
0.521990
0.527860
0.534700
0.540570
0.546430
0.551320
0.554250
0.557180
0.558160
0.558160
0.556210
0.553270
0.549360
0.543500
0.538610
0.532750
0.525900
0.518080
0.511240
0.503420
0.494620
0.487780
0.480940
0.473120
0.466280
0.458460
0.451610
0.444770
0.438910
0.433040
0.426200
0.418380
0.411530
0.405670
0.400780
0.394920
0.388070
0.382210
0.377320
0.373410
0.368520
0.362660
0.356790
0.351910
0.348000
0.344090
0.342130
0.339200
0.335290
0.330400
0.325510
0.319650
0.314760
0.309870
0.304990
0.300100
0.296190
0.293260
0.291300
0.291300
0.292280
0.296190
0.304010
0.314760
0.327470
0.342130
0.359730
0.377320
0.395890
0.412510
0.429130
0.442820
0.456500
0.469210
0.482890
0.495600
0.508310
0.519060
0.529810
0.539590
0.549360
0.557180
0.564030
0.567940
0.570870
0.571850
0.572830
0.571850
0.570870
0.568910
0.565980
0.562070
0.557180
0.551320
0.545450
0.538610
0.531770
0.524930
0.518080
0.510260
0.500490
0.488760
0.478010
0.467250
0.457480
0.448680
0.441840
0.435000
0.430110
0.425220
0.420330
0.414470
0.408600
0.402740
0.396870
0.390030
0.383190
0.376340
0.368520
0.361680
0.357770
0.354840
0.350930
0.348000
0.344090
0.342130
0.339200
0.336270
0.333330
0.330400
0.326490
0.322580
0.317690
0.314760
0.312810
0.310850
0.309870
0.310850
0.313780
0.320630
0.331380
0.345060
0.362660
0.382210
0.403710
0.423260
0.440860
0.458460
0.476050
0.492670
0.508310
0.538610
0.574780
0.598240
0.613880
0.626590
0.637340
0.646140
0.652980
0.658850
0.663730
0.667640
0.672530
0.676440
0.679370
0.680350
0.679370
0.675460
0.669600
0.661780
0.652980
0.646140
0.640270
0.633430
0.626590
0.618770
0.610950
0.601170
0.592380
0.581620
0.570870
0.560120
0.550340
0.541540
0.534700
0.527860
0.521990
0.514170
0.507330
0.501470
0.495600
0.488760
0.481920
0.476050
0.471160
0.466280
0.462370
0.457480
0.453570
0.449660
0.444770
0.439880
0.434020
0.428150
0.421310
0.414470
0.407620
0.401760
0.397850
0.394920
0.392960
0.392960
0.393940
0.397850
0.402740
0.409580
0.419350
0.431090
0.445750
0.463340
0.479960
0.495600
0.514170
0.531770
0.550340
0.567940
0.582600
0.597260
0.610950
0.623660
0.635390
0.645160
0.653960
0.660800
0.666670
0.672530
0.677420
0.681330
0.685240
0.689150
0.692080
0.693060
0.694040
0.694040
0.691100
0.688170
0.683280
0.676440
0.668620
0.659820
0.651030
0.641250
0.631480
0.620720
0.609970
0.600200
0.589440
0.579670
0.569890
0.562070
0.552300
0.544480
0.536660
0.529810
0.523950
0.519060
0.514170
0.509290
0.504400
0.498530
0.494620
0.489740
0.483870
0.477030
0.470190
0.464320
0.458460
0.453570
0.449660
0.445750
0.441840
0.437930
0.433040
0.429130
0.425220
0.420330
0.417400
0.416420
0.415440
0.416420
0.419350
0.424240
0.431090
0.440860
0.453570
0.467250
0.481920
0.500490
0.521990
0.543500
0.564030
0.583580
0.600200
0.615840
0.630500
0.642230
0.651030
0.660800
0.667640
0.673510
0.680350
0.688170
0.695010
0.700880
0.704790
0.707720
0.709680
0.710650
0.709680
0.707720
0.704790
0.701860
0.697950
0.694040
0.688170
0.680350
0.671550
0.661780
0.652980
0.643210
0.633430
0.623660
0.614860
0.606060
0.598240
0.590420
0.581620
0.571850
0.563050
0.553270
0.545450
0.537630
0.531770
0.525900
0.521020
0.516130
0.512220
0.507330
0.502440
0.496580
0.491690
0.485830
0.480940
0.476050
0.472140
0.468230
0.464320
0.461390
0.459430
0.456500
0.452590
0.448680
0.445750
0.441840
0.439880
0.439880
0.440860
0.443790
0.450640
0.459430
0.470190
0.481920
0.496580
0.514170
0.532750
0.552300
0.571850
0.589440
0.607040
0.623660
0.638320
0.652000
0.661780
0.670580
0.681330
0.691100
0.699900
0.707720
0.713590
0.719450
0.723360
0.726300
0.729230
0.731180
0.732160
0.731180
0.728250
0.724340
0.719450
0.712610
0.705770
0.697950
0.690130
0.680350
0.668620
0.655910
0.643210
0.612900
0.576740
0.554250
0.539590
0.529810
0.523950
0.519060
0.514170
0.508310
0.503420
0.497560
0.490710
0.484850
0.479960
0.476050
0.472140
0.467250
0.463340
0.458460
0.453570
0.449660
0.445750
0.441840
0.437930
0.434020
0.430110
0.428150
0.425220
0.422290
0.418380
0.415440
0.411530
0.408600
0.406650
0.405670
0.406650
0.409580
0.415440
0.423260
0.432060
0.444770
0.458460
0.474100
0.489740
0.504400
0.519060
0.533720
0.547410
0.561090
0.573800
0.583580
0.591400
0.599220
0.607040
0.613880
0.618770
0.623660
0.628540
0.633430
0.638320
0.642230
0.644180
0.645160
0.644180
0.641250
0.637340
0.632450
0.626590
0.619750
0.612900
0.606060
0.598240
0.589440
0.580650
0.573800
0.566960
0.562070
0.556210
0.549360
0.542520
0.534700
0.527860
0.521020
0.515150
0.508310
0.502440
0.495600
0.490710
0.486800
0.481920
0.477030
0.472140
0.468230
0.464320
0.460410
0.456500
0.453570
0.451610
0.447700
0.443790
0.440860
0.436950
0.433040
0.427170
0.422290
0.417400
0.414470
0.412510
0.411530
0.410560
0.411530
0.413490
0.417400
0.423260
0.430110
0.439880
0.451610
0.464320
0.478980
0.493650
0.508310
0.521990
0.536660
0.551320
0.564030
0.574780
0.584560
0.595310
0.604110
0.612900
0.620720
0.627570
0.632450
0.637340
0.640270
0.642230
0.644180
0.645160
0.645160
0.644180
0.642230
0.638320
0.634410
0.628540
0.621700
0.615840
0.608020
0.600200
0.591400
0.584560
0.577710
0.571850
0.565000
0.558160
0.550340
0.542520
0.534700
0.527860
0.521020
0.515150
0.509290
0.504400
0.499510
0.495600
0.491690
0.486800
0.481920
0.477030
0.472140
0.468230
0.463340
0.458460
0.453570
0.449660
0.444770
0.441840
0.439880
0.435970
0.432060
0.429130
0.425220
0.423260
0.421310
0.419350
0.417400
0.416420
0.416420
0.418380
0.420330
0.425220
0.431090
0.439880
0.451610
0.464320
0.478980
0.493650
0.508310
0.521990
0.536660
0.550340
0.561090
0.569890
0.579670
0.590420
0.600200
0.608990
0.616810
0.623660
0.629520
0.633430
0.636360
0.639300
0.639300
0.639300
0.637340
0.636360
0.634410
0.631480
0.628540
0.623660
0.617790
0.611930
0.606060
0.600200
0.593350
0.586510
0.578690
0.571850
0.564030
0.556210
0.549360
0.542520
0.537630
0.531770
0.525900
0.520040
0.514170
0.508310
0.503420
0.497560
0.491690
0.486800
0.482890
0.479960
0.476050
0.472140
0.468230
0.464320
0.460410
0.456500
0.452590
0.449660
0.445750
0.440860
0.436950
0.433040
0.418380
0.399800
0.388070
0.381230
0.376340
0.374390
0.373410
0.374390
0.377320
0.381230
0.388070
0.396870
0.408600
0.422290
0.437930
0.454550
0.471160
0.487780
0.503420
0.518080
0.530790
0.544480
0.559140
0.572830
0.585530
0.596290
0.604110
0.610950
0.615840
0.619750
0.623660
0.625610
0.626590
0.627570
0.629520
0.630500
0.630500
0.628540
0.625610
0.620720
0.613880
0.608020
0.601170
0.594330
0.587490
0.579670
0.570870
0.562070
0.552300
0.543500
0.534700
0.525900
0.517110
0.509290
0.502440
0.495600
0.489740
0.483870
0.478010
0.472140
0.466280
0.460410
0.454550
0.448680
0.443790
0.438910
0.435970
0.432060
0.429130
0.426200
0.424240
0.422290
0.419350
0.415440
0.410560
0.405670
0.400780
0.395890
0.391010
0.387100
0.383190
0.380250
0.377320
0.375370
0.373410
0.373410
0.376340
0.383190
0.391980
0.403710
0.419350
0.435000
0.452590
0.470190
0.484850
0.497560
0.512220
0.526880
0.540570
0.553270
0.565980
0.577710
0.588470
0.598240
0.605080
0.610950
0.614860
0.616810
0.618770
0.622680
0.624630
0.626590
0.626590
0.625610
0.621700
0.615840
0.608990
0.602150
0.596290
0.589440
0.582600
0.573800
0.565000
0.556210
0.547410
0.537630
0.529810
0.521990
0.515150
0.508310
0.502440
0.498530
0.493650
0.489740
0.483870
0.478980
0.473120
0.467250
0.460410
0.453570
0.448680
0.443790
0.439880
0.436950
0.435000
0.433040
0.430110
0.428150
0.425220
0.422290
0.419350
0.414470
0.409580
0.404690
0.398830
0.393940
0.390030
0.387100
0.384160
0.380250
0.378300
0.377320
0.378300
0.382210
0.387100
0.395890
0.407620
0.421310
0.435000
0.448680
0.464320
0.480940
0.496580
0.512220
0.527860
0.542520
0.555230
0.566960
0.576740
0.585530
0.593350
0.599220
0.604110
0.608990
0.611930
0.613880
0.613880
0.613880
0.611930
0.610950
0.608990
0.606060
0.603130
0.599220
0.593350
0.586510
0.577710
0.567940
0.558160
0.549360
0.539590
0.530790
0.522970
0.516130
0.510260
0.504400
0.499510
0.495600
0.489740
0.482890
0.476050
0.469210
0.463340
0.458460
0.454550
0.450640
0.446730
0.442820
0.438910
0.435000
0.430110
0.426200
0.422290
0.417400
0.413490
0.407620
0.402740
0.397850
0.392960
0.388070
0.385140
0.384160
0.383190
0.382210
0.381230
0.380250
0.379280
0.379280
0.380250
0.382210
0.385140
0.390030
0.397850
0.404690
0.414470
0.426200
0.438910
0.453570
0.469210
0.485830
0.502440
0.518080
0.531770
0.544480
0.555230
0.565000
0.572830
0.580650
0.588470
0.596290
0.603130
0.608990
0.612900
0.615840
0.616810
0.616810
0.614860
0.611930
0.608990
0.603130
0.596290
0.589440
0.580650
0.572830
0.565000
0.558160
0.551320
0.545450
0.539590
0.533720
0.526880
0.521020
0.513200
0.503420
0.492670
0.482890
0.474100
0.466280
0.459430
0.454550
0.450640
0.445750
0.441840
0.438910
0.435970
0.433040
0.428150
0.423260
0.417400
0.412510
0.406650
0.400780
0.394920
0.389050
0.384160
0.379280
0.377320
0.376340
0.374390
0.373410
0.372430
0.370480
0.368520
0.365590
0.364610
0.363640
0.364610
0.366570
0.370480
0.376340
0.384160
0.394920
0.408600
0.424240
0.441840
0.460410
0.479960
0.497560
0.515150
0.531770
0.545450
0.556210
0.563050
0.570870
0.578690
0.585530
0.590420
0.595310
0.599220
0.604110
0.607040
0.608020
0.608990
0.608990
0.607040
0.605080
0.601170
0.597260
0.593350
0.586510
0.578690
0.568910
0.559140
0.549360
0.539590
0.531770
0.525900
0.519060
0.512220
0.505380
0.498530
0.492670
0.485830
0.478980
0.472140
0.465300
0.458460
0.451610
0.444770
0.438910
0.433040
0.427170
0.422290
0.418380
0.414470
0.410560
0.407620
0.404690
0.402740
0.399800
0.397850
0.393940
0.390030
0.384160
0.379280
0.374390
0.369500
0.365590
0.361680
0.357770
0.354840
0.352880
0.352880
0.354840
0.358750
0.364610
0.372430
0.381230
0.391980
0.405670
0.421310
0.438910
0.456500
0.475070
0.492670
0.507330
0.521020
0.535680
0.549360
0.561090
0.570870
0.579670
0.585530
0.590420
0.595310
0.598240
0.600200
0.601170
0.600200
0.598240
0.595310
0.593350
0.591400
0.587490
0.583580
0.578690
0.571850
0.565000
0.557180
0.548390
0.539590
0.530790
0.519060
0.508310
0.499510
0.490710
0.482890
0.475070
0.467250
0.458460
0.448680
0.439880
0.432060
0.425220
0.419350
0.411530
0.404690
0.397850
0.391010
0.385140
0.380250
0.375370
0.371460
0.365590
0.360700
0.356790
0.353860
0.350930
0.347020
0.344090
0.340180
0.336270
0.331380
0.324540
0.318670
0.311830
0.306940
0.304010
0.302050
0.301080
0.300100
0.299120
0.301080
0.304990
0.312810
0.322580
0.335290
0.349950
0.366570
0.385140
0.400780
0.414470
0.429130
0.443790
0.458460
0.471160
0.482890
0.493650
0.501470
0.509290
0.514170
0.518080
0.521020
0.522970
0.523950
0.525900
0.526880
0.525900
0.523950
0.520040
0.515150
0.509290
0.502440
0.495600
0.487780
0.480940
0.475070
0.468230
0.460410
0.451610
0.444770
0.437930
0.442820
0.452590
0.455520
0.453570
0.450640
0.446730
0.441840
0.436950
0.432060
0.426200
0.420330
0.414470
0.409580
0.405670
0.401760
0.397850
0.394920
0.391010
0.389050
0.386120
0.384160
0.381230
0.378300
0.375370
0.373410
0.369500
0.365590
0.360700
0.355820
0.351910
0.347020
0.344090
0.343110
0.341150
0.339200
0.338220
0.336270
0.335290
0.336270
0.340180
0.346040
0.354840
0.366570
0.378300
0.390030
0.404690
0.419350
0.434020
0.449660
0.463340
0.476050
0.487780
0.497560
0.506350
0.514170
0.520040
0.524930
0.528840
0.531770
0.534700
0.536660
0.538610
0.539590
0.539590
0.539590
0.536660
0.533720
0.529810
0.524930
0.520040
0.514170
0.508310
0.501470
0.495600
0.487780
0.480940
0.472140
0.464320
0.456500
0.450640
0.445750
0.441840
0.436950
0.431090
0.426200
0.422290
0.418380
0.414470
0.409580
0.404690
0.398830
0.391980
0.386120
0.380250
0.376340
0.371460
0.367550
0.363640
0.359730
0.355820
0.352880
0.349950
0.347020
0.345060
0.343110
0.342130
0.340180
0.337240
0.334310
0.330400
0.326490
0.322580
0.320630
0.318670
0.318670
0.320630
0.324540
0.330400
0.338220
0.348000
0.359730
0.372430
0.388070
0.403710
0.419350
0.434020
0.449660
0.464320
0.478010
0.489740
0.499510
0.508310
0.517110
0.524930
0.531770
0.537630
0.542520
0.547410
0.551320
0.555230
0.558160
0.559140
0.560120
0.559140
0.556210
0.552300
0.547410
0.541540
0.536660
0.531770
0.526880
0.521020
0.515150
0.508310
0.501470
0.493650
0.486800
0.478980
0.471160
0.462370
0.454550
0.445750
0.437930
0.432060
0.428150
0.424240
0.419350
0.414470
0.410560
0.407620
0.402740
0.397850
0.392960
0.388070
0.383190
0.378300
0.374390
0.369500
0.364610
0.359730
0.355820
0.352880
0.348970
0.346040
0.344090
0.342130
0.341150
0.339200
0.338220
0.336270
0.334310
0.333330
0.334310
0.337240
0.342130
0.350930
0.361680
0.375370
0.391010
0.408600
0.426200
0.444770
0.462370
0.478980
0.493650
0.506350
0.517110
0.528840
0.538610
0.547410
0.556210
0.564030
0.570870
0.577710
0.583580
0.589440
0.593350
0.597260
0.600200
0.602150
0.603130
0.602150
0.600200
0.596290
0.591400
0.585530
0.579670
0.572830
0.565000
0.556210
0.548390
0.541540
0.534700
0.527860
0.521020
0.514170
0.506350
0.498530
0.490710
0.482890
0.475070
0.467250
0.460410
0.453570
0.447700
0.441840
0.435000
0.430110
0.424240
0.419350
0.415440
0.410560
0.405670
0.401760
0.397850
0.393940
0.400780
0.411530
0.414470
0.414470
0.413490
0.410560
0.407620
0.403710
0.400780
0.397850
0.394920
0.393940
0.394920
0.396870
0.401760
0.407620
0.415440
0.426200
0.440860
0.456500
0.474100
0.491690
0.508310
0.524930
0.538610
0.550340
0.563050
0.573800
0.583580
0.593350
0.602150
0.610950
0.617790
0.625610
0.632450
0.638320
0.641250
0.644180
0.647120
0.650050
0.652980
0.653960
0.654940
0.654940
0.652980
0.651030
0.646140
0.641250
0.634410
0.627570
0.621700
0.613880
0.606060
0.598240
0.589440
0.579670
0.571850
0.565000
0.556210
0.548390
0.541540
0.535680
0.529810
0.523950
0.519060
0.512220
0.506350
0.499510
0.492670
0.486800
0.479960
0.475070
0.470190
0.465300
0.461390
0.458460
0.454550
0.449660
0.444770
0.438910
0.433040
0.428150
0.423260
0.418380
0.414470
0.412510
0.410560
0.410560
0.408600
0.408600
0.409580
0.413490
0.419350
0.427170
0.437930
0.451610
0.465300
0.481920
0.498530
0.512220
0.525900
0.540570
0.556210
0.570870
0.584560
0.597260
0.608990
0.619750
0.629520
0.637340
0.644180
0.650050
0.652980
0.656890
0.659820
0.663730
0.666670
0.669600
0.671550
0.672530
0.672530
0.671550
0.669600
0.665690
0.660800
0.653960
0.645160
0.636360
0.627570
0.618770
0.609970
0.602150
0.593350
0.585530
0.576740
0.569890
0.564030
0.558160
0.552300
0.545450
0.539590
0.532750
0.525900
0.519060
0.512220
0.505380
0.499510
0.494620
0.489740
0.484850
0.481920
0.478010
0.474100
0.469210
0.465300
0.462370
0.458460
0.453570
0.447700
0.441840
0.435000
0.430110
0.425220
0.421310
0.418380
0.416420
0.415440
0.417400
0.422290
0.428150
0.437930
0.449660
0.462370
0.477030
0.491690
0.505380
0.521990
0.538610
0.555230
0.570870
0.585530
0.598240
0.609970
0.620720
0.630500
0.640270
0.649070
0.655910
0.662760
0.668620
0.673510
0.676440
0.678400
0.678400
0.678400
0.676440
0.674490
0.671550
0.667640
0.662760
0.656890
0.651030
0.645160
0.638320
0.631480
0.624630
0.615840
0.608020
0.600200
0.591400
0.583580
0.575760
0.569890
0.564030
0.557180
0.551320
0.544480
0.537630
0.530790
0.524930
0.519060
0.514170
0.509290
0.504400
0.499510
0.496580
0.491690
0.486800
0.481920
0.477030
0.473120
0.469210
0.467250
0.465300
0.462370
0.459430
0.457480
0.455520
0.451610
0.446730
0.442820
0.438910
0.435970
0.434020
0.435000
0.438910
0.445750
0.455520
0.468230
0.480940
0.493650
0.510260
0.527860
0.546430
0.563050
0.578690
0.584560
0.583580
0.587490
0.594330
0.603130
0.609970
0.616810
0.622680
0.628540
0.634410
0.639300
0.644180
0.649070
0.651030
0.652980
0.652000
0.650050
0.646140
0.642230
0.638320
0.633430
0.628540
0.622680
0.615840
0.608990
0.601170
0.593350
0.584560
0.576740
0.568910
0.561090
0.554250
0.546430
0.539590
0.532750
0.525900
0.519060
0.512220
0.505380
0.498530
0.492670
0.487780
0.484850
0.482890
0.481920
0.478980
0.475070
0.471160
0.466280
0.461390
0.456500
0.450640
0.444770
0.439880
0.435000
0.432060
0.429130
0.427170
0.424240
0.422290
0.421310
0.420330
0.419350
0.419350
0.421310
0.425220
0.431090
0.437930
0.446730
0.457480
0.471160
0.486800
0.502440
0.517110
0.532750
0.547410
0.561090
0.574780
0.586510
0.597260
0.606060
0.613880
0.621700
0.628540
0.634410
0.639300
0.642230
0.645160
0.647120
0.649070
0.649070
0.649070
0.648090
0.646140
0.644180
0.642230
0.638320
0.633430
0.628540
0.622680
0.615840
0.608020
0.599220
0.590420
0.581620
0.574780
0.566960
0.560120
0.552300
0.544480
0.536660
0.529810
0.523950
0.518080
0.513200
0.509290
0.504400
0.501470
0.497560
0.493650
0.488760
0.483870
0.479960
0.475070
0.470190
0.465300
0.460410
0.455520
0.450640
0.445750
0.442820
0.440860
0.437930
0.435000
0.433040
0.431090
0.428150
0.425220
0.423260
0.422290
0.421310
0.423260
0.426200
0.431090
0.437930
0.447700
0.460410
0.476050
0.492670
0.510260
0.527860
0.545450
0.563050
0.578690
0.591400
0.601170
0.609970
0.617790
0.625610
0.631480
0.637340
0.642230
0.648090
0.652000
0.655910
0.657870
0.659820
0.660800
0.661780
0.660800
0.657870
0.652980
0.646140
0.637340
0.629520
0.621700
0.613880
0.607040
0.600200
0.592380
0.585530
0.578690
0.570870
0.564030
0.557180
0.550340
0.544480
0.539590
0.534700
0.528840
0.523950
0.518080
0.513200
0.508310
0.502440
0.496580
0.490710
0.486800
0.482890
0.479960
0.477030
0.475070
0.473120
0.469210
0.464320
0.461390
0.457480
0.453570
0.448680
0.443790
0.438910
0.435000
0.431090
0.428150
0.426200
0.425220
0.425220
0.426200
0.429130
0.433040
0.439880
0.449660
0.462370
0.476050
0.491690
0.507330
0.521990
0.537630
0.552300
0.565980
0.576740
0.586510
0.596290
0.606060
0.615840
0.625610
0.633430
0.639300
0.643210
0.646140
0.649070
0.651030
0.652000
0.652000
0.652000
0.651030
0.649070
0.645160
0.641250
0.636360
0.632450
0.627570
0.621700
0.615840
0.609970
0.604110
0.587490
0.566960
0.552300
0.540570
0.530790
0.521990
0.513200
0.505380
0.498530
0.491690
0.485830
0.479960
0.475070
0.470190
0.464320
0.457480
0.451610
0.445750
0.438910
0.433040
0.430110
0.428150
0.425220
0.424240
0.423260
0.421310
0.417400
0.413490
0.407620
0.401760
0.395890
0.390030
0.384160
0.379280
0.374390
0.371460
0.369500
0.369500
0.370480
0.374390
0.380250
0.389050
0.400780
0.414470
0.429130
0.446730
0.463340
0.480940
0.495600
0.508310
0.521020
0.532750
0.544480
0.556210
0.567940
0.578690
0.589440
0.598240
0.606060
0.612900
0.617790
0.621700
0.622680
0.624630
0.624630
0.622680
0.618770
0.613880
0.609970
0.605080
0.599220
0.593350
0.587490
0.580650
0.573800
0.566960
0.559140
0.550340
0.542520
0.536660
0.529810
0.523950
0.518080
0.509290
0.501470
0.493650
0.486800
0.480940
0.475070
0.470190
0.465300
0.461390
0.457480
0.453570
0.449660
0.443790
0.438910
0.434020
0.430110
0.425220
0.420330
0.415440
0.410560
0.404690
0.399800
0.396870
0.393940
0.391980
0.388070
0.384160
0.380250
0.377320
0.375370
0.375370
0.374390
0.374390
0.376340
0.381230
0.389050
0.398830
0.411530
0.425220
0.440860
0.455520
0.469210
0.484850
0.501470
0.518080
0.534700
0.549360
0.563050
0.575760
0.585530
0.594330
0.600200
0.606060
0.609970
0.612900
0.615840
0.618770
0.620720
0.621700
0.622680
0.620720
0.616810
0.611930
0.606060
0.600200
0.595310
0.590420
0.584560
0.577710
0.570870
0.562070
0.552300
0.542520
0.531770
0.521990
0.513200
0.503420
0.494620
0.488760
0.483870
0.478980
0.474100
0.469210
0.464320
0.459430
0.454550
0.449660
0.444770
0.439880
0.434020
0.430110
0.427170
0.423260
0.418380
0.414470
0.409580
0.405670
0.401760
0.398830
0.395890
0.391980
0.389050
0.386120
0.383190
0.380250
0.377320
0.374390
0.373410
0.373410
0.374390
0.378300
0.384160
0.393940
0.406650
0.421310
0.435970
0.448680
0.464320
0.480940
0.496580
0.512220
0.525900
0.539590
0.551320
0.563050
0.573800
0.582600
0.589440
0.594330
0.599220
0.602150
0.605080
0.607040
0.609970
0.611930
0.612900
0.611930
0.608990
0.606060
0.601170
0.595310
0.588470
0.581620
0.574780
0.567940
0.560120
0.551320
0.542520
0.532750
0.524930
0.518080
0.511240
0.505380
0.499510
0.494620
0.488760
0.482890
0.477030
0.471160
0.464320
0.457480
0.450640
0.444770
0.438910
0.434020
0.431090
0.429130
0.427170
0.425220
0.422290
0.418380
0.413490
0.408600
0.401760
0.393940
0.388070
0.383190
0.380250
0.378300
0.375370
0.371460
0.367550
0.364610
0.362660
0.362660
0.363640
0.367550
0.374390
0.383190
0.395890
0.408600
0.426200
0.444770
0.458460
0.475070
0.492670
0.510260
0.528840
0.545450
0.561090
0.573800
0.584560
0.593350
0.598240
0.603130
0.608020
0.611930
0.615840
0.618770
0.620720
0.620720
0.619750
0.618770
0.618770
0.617790
0.614860
0.611930
0.607040
0.600200
0.593350
0.585530
0.576740
0.567940
0.559140
0.549360
0.539590
0.529810
0.521020
0.512220
0.503420
0.494620
0.487780
0.481920
0.475070
0.470190
0.464320
0.457480
0.449660
0.441840
0.434020
0.429130
0.424240
0.420330
0.417400
0.415440
0.414470
0.413490
0.412510
0.410560
0.406650
0.400780
0.394920
0.390030
0.385140
0.379280
0.374390
0.369500
0.366570
0.364610
0.364610
0.363640
0.363640
0.365590
0.367550
0.372430
0.378300
0.386120
0.398830
0.413490
0.430110
0.447700
0.465300
0.483870
0.500490
0.516130
0.531770
0.545450
0.556210
0.565000
0.573800
0.581620
0.589440
0.597260
0.604110
0.608020
0.610950
0.611930
0.609970
0.607040
0.602150
0.596290
0.591400
0.586510
0.580650
0.574780
0.566960
0.558160
0.549360
0.537630
0.525900
0.515150
0.504400
0.496580
0.489740
0.480940
0.471160
0.459430
0.447700
0.435970
0.426200
0.418380
0.412510
0.407620
0.403710
0.399800
0.395890
0.391980
0.387100
0.382210
0.375370
0.369500
0.365590
0.361680
0.356790
0.352880
0.348970
0.344090
0.341150
0.337240
0.332360
0.327470
0.322580
0.316720
0.311830
0.307920
0.304990
0.302050
0.300100
0.300100
0.301080
0.304010
0.307920
0.313780
0.322580
0.333330
0.347020
0.361680
0.378300
0.395890
0.414470
0.433040
0.450640
0.465300
0.478010
0.489740
0.498530
0.505380
0.511240
0.514170
0.515150
0.516130
0.516130
0.515150
0.513200
0.512220
0.510260
0.508310
0.505380
0.502440
0.498530
0.494620
0.489740
0.483870
0.477030
0.469210
0.459430
0.449660
0.440860
0.433040
0.425220
0.418380
0.411530
0.404690
0.398830
0.392960
0.387100
0.380250
0.375370
0.369500
0.364610
0.360700
0.356790
0.352880
0.348970
0.345060
0.340180
0.335290
0.329420
0.322580
0.317690
0.312810
0.309870
0.306940
0.304990
0.303030
0.301080
0.298140
0.293260
0.289350
0.284460
0.279570
0.275660
0.272730
0.269790
0.268820
0.267840
0.268820
0.272730
0.279570
0.289350
0.301080
0.314760
0.330400
0.347020
0.364610
0.383190
0.400780
0.416420
0.430110
0.457480
0.488760
0.509290
0.523950
0.534700
0.542520
0.548390
0.553270
0.556210
0.558160
0.559140
0.558160
0.557180
0.556210
0.554250
0.550340
0.546430
0.541540
0.535680
0.528840
0.523950
0.519060
0.514170
0.509290
0.504400
0.498530
0.493650
0.487780
0.482890
0.478010
0.471160
0.465300
0.459430
0.452590
0.446730
0.441840
0.438910
0.435000
0.431090
0.427170
0.422290
0.418380
0.414470
0.410560
0.405670
0.400780
0.395890
0.391010
0.387100
0.384160
0.382210
0.379280
0.378300
0.376340
0.373410
0.370480
0.366570
0.362660
0.358750
0.355820
0.353860
0.352880
0.352880
0.352880
0.353860
0.357770
0.364610
0.373410
0.384160
0.396870
0.412510
0.429130
0.444770
0.459430
0.471160
0.483870
0.495600
0.506350
0.516130
0.526880
0.535680
0.541540
0.547410
0.553270
0.559140
0.563050
0.566960
0.570870
0.573800
0.576740
0.578690
0.579670
0.579670
0.577710
0.571850
0.565000
0.560120
0.553270
0.547410
0.540570
0.534700
0.526880
0.520040
0.514170
0.508310
0.499510
0.491690
0.485830
0.479960
0.474100
0.468230
0.464320
0.460410
0.452590
0.443790
0.436950
0.431090
0.425220
0.421310
0.416420
0.412510
0.409580
0.405670
0.403710
0.401760
0.397850
0.391980
0.387100
0.382210
0.379280
0.377320
0.375370
0.372430
0.367550
0.364610
0.362660
0.360700
0.358750
0.357770
0.359730
0.363640
0.371460
0.381230
0.392960
0.407620
0.423260
0.437930
0.451610
0.467250
0.481920
0.497560
0.512220
0.525900
0.539590
0.552300
0.564030
0.574780
0.583580
0.590420
0.594330
0.597260
0.600200
0.602150
0.603130
0.605080
0.606060
0.607040
0.608020
0.608020
0.608020
0.607040
0.604110
0.600200
0.594330
0.587490
0.579670
0.571850
0.564030
0.556210
0.547410
0.537630
0.527860
0.519060
0.510260
0.503420
0.497560
0.491690
0.486800
0.481920
0.477030
0.472140
0.467250
0.462370
0.457480
0.452590
0.446730
0.442820
0.438910
0.435000
0.430110
0.426200
0.421310
0.416420
0.410560
0.404690
0.398830
0.392960
0.388070
0.384160
0.382210
0.381230
0.381230
0.381230
0.382210
0.385140
0.389050
0.393940
0.400780
0.409580
0.420330
0.434020
0.446730
0.460410
0.475070
0.490710
0.506350
0.521990
0.534700
0.547410
0.559140
0.570870
0.581620
0.591400
0.600200
0.606060
0.609970
0.612900
0.616810
0.619750
0.622680
0.625610
0.629520
0.632450
0.634410
0.635390
0.634410
0.632450
0.628540
0.623660
0.616810
0.608990
0.600200
0.590420
0.579670
0.568910
0.559140
0.551320
0.544480
0.537630
0.531770
0.525900
0.520040
0.514170
0.507330
0.500490
0.493650
0.487780
0.480940
0.475070
0.469210
0.463340
0.458460
0.454550
0.450640
0.447700
0.443790
0.440860
0.437930
0.435000
0.431090
0.426200
0.421310
0.415440
0.409580
0.403710
0.399800
0.395890
0.392960
0.391010
0.390030
0.391010
0.393940
0.397850
0.403710
0.411530
0.423260
0.434020
0.446730
0.461390
0.478010
0.495600
0.512220
0.527860
0.542520
0.557180
0.570870
0.582600
0.593350
0.603130
0.611930
0.618770
0.626590
0.634410
0.639300
0.643210
0.646140
0.648090
0.649070
0.649070
0.648090
0.647120
0.645160
0.643210
0.641250
0.638320
0.633430
0.628540
0.622680
0.615840
0.608020
0.599220
0.589440
0.579670
0.570870
0.564030
0.557180
0.549360
0.543500
0.536660
0.530790
0.522970
0.515150
0.507330
0.500490
0.494620
0.489740
0.485830
0.482890
0.478980
0.474100
0.470190
0.464320
0.459430
0.454550
0.449660
0.445750
0.442820
0.439880
0.435970
0.434020
0.431090
0.427170
0.424240
0.420330
0.417400
0.414470
0.411530
0.409580
0.410560
0.413490
0.419350
0.427170
0.436950
0.449660
0.464320
0.480940
0.496580
0.512220
0.527860
0.543500
0.557180
0.568910
0.580650
0.589440
0.596290
0.605080
0.613880
0.621700
0.628540
0.634410
0.640270
0.645160
0.650050
0.652000
0.654940
0.655910
0.654940
0.652980
0.650050
0.647120
0.643210
0.637340
0.632450
0.625610
0.619750
0.611930
0.604110
0.595310
0.588470
0.581620
0.574780
0.566960
0.559140
0.552300
0.545450
0.538610
0.530790
0.522970
0.514170
0.506350
0.499510
0.494620
0.491690
0.488760
0.486800
0.483870
0.479960
0.476050
0.471160
0.467250
0.463340
0.459430
0.455520
0.451610
0.448680
0.444770
0.441840
0.437930
0.435000
0.431090
0.428150
0.425220
0.424240
0.424240
0.427170
0.432060
0.438910
0.446730
0.458460
0.472140
0.486800
0.502440
0.518080
0.532750
0.547410
0.562070
0.574780
0.587490
0.596290
0.604110
0.612900
0.621700
0.630500
0.638320
0.644180
0.648090
0.651030
0.652980
0.654940
0.655910
0.655910
0.653960
0.652000
0.651030
0.648090
0.645160
0.641250
0.636360
0.629520
0.622680
0.613880
0.606060
0.597260
0.590420
0.583580
0.575760
0.568910
0.561090
0.553270
0.547410
0.541540
0.535680
0.529810
0.524930
0.520040
0.514170
0.508310
0.503420
0.498530
0.493650
0.488760
0.483870
0.478980
0.475070
0.470190
0.465300
0.460410
0.455520
0.451610
0.448680
0.445750
0.435970
0.422290
0.413490
0.408600
0.406650
0.404690
0.404690
0.405670
0.408600
0.413490
0.419350
0.426200
0.435970
0.448680
0.463340
0.478980
0.496580
0.514170
0.529810
0.545450
0.560120
0.572830
0.582600
0.591400
0.600200
0.608990
0.616810
0.623660
0.629520
0.633430
0.636360
0.639300
0.641250
0.643210
0.644180
0.645160
0.644180
0.642230
0.640270
0.636360
0.630500
0.624630
0.617790
0.608990
0.600200
0.590420
0.582600
0.575760
0.568910
0.562070
0.554250
0.545450
0.536660
0.528840
0.521020
0.514170
0.509290
0.504400
0.500490
0.495600
0.491690
0.486800
0.480940
0.476050
0.470190
0.465300
0.460410
0.456500
0.453570
0.450640
0.446730
0.441840
0.437930
0.434020
0.430110
0.426200
0.422290
0.419350
0.417400
0.415440
0.414470
0.413490
0.412510
0.412510
0.414470
0.417400
0.421310
0.429130
0.438910
0.451610
0.465300
0.480940
0.497560
0.513200
0.528840
0.544480
0.558160
0.569890
0.580650
0.590420
0.601170
0.609970
0.619750
0.627570
0.633430
0.639300
0.643210
0.646140
0.649070
0.650050
0.649070
0.647120
0.646140
0.644180
0.641250
0.636360
0.630500
0.623660
0.617790
0.610950
0.602150
0.593350
0.584560
0.576740
0.568910
0.561090
0.552300
0.544480
0.536660
0.529810
0.523950
0.519060
0.514170
0.510260
0.506350
0.502440
0.498530
0.494620
0.490710
0.485830
0.479960
0.474100
0.469210
0.463340
0.456500
0.450640
0.444770
0.440860
0.437930
0.435970
0.434020
0.433040
0.430110
0.426200
0.422290
0.419350
0.415440
0.412510
0.410560
0.410560
0.412510
0.416420
0.422290
0.431090
0.442820
0.457480
0.473120
0.489740
0.508310
0.524930
0.541540
0.556210
0.567940
0.578690
0.589440
0.599220
0.608990
0.616810
0.623660
0.629520
0.633430
0.636360
0.639300
0.641250
0.642230
0.642230
0.643210
0.643210
0.642230
0.640270
0.636360
0.632450
0.626590
0.620720
0.613880
0.607040
0.598240
0.589440
0.581620
0.573800
0.565980
0.557180
0.550340
0.542520
0.535680
0.529810
0.523950
0.519060
0.513200
0.508310
0.503420
0.498530
0.493650
0.489740
0.485830
0.482890
0.478980
0.476050
0.472140
0.468230
0.463340
0.458460
0.454550
0.450640
0.446730
0.441840
0.436950
0.432060
0.427170
0.423260
0.419350
0.415440
0.412510
0.410560
0.410560
0.411530
0.415440
0.420330
0.428150
0.438910
0.451610
0.465300
0.479960
0.496580
0.512220
0.526880
0.542520
0.555230
0.565000
0.574780
0.584560
0.595310
0.606060
0.616810
0.625610
0.632450
0.634410
0.633430
0.633430
0.633430
0.633430
0.634410
0.636360
0.637340
0.635390
0.632450
0.628540
0.621700
0.613880
0.607040
0.598240
0.589440
0.581620
0.573800
0.565980
0.559140
0.552300
0.545450
0.538610
0.531770
0.522970
0.515150
0.506350
0.497560
0.490710
0.484850
0.478010
0.472140
0.466280
0.461390
0.456500
0.450640
0.444770
0.439880
0.435000
0.431090
0.427170
0.423260
0.419350
0.415440
0.409580
0.404690
0.398830
0.393940
0.389050
0.385140
0.382210
0.380250
0.379280
0.379280
0.379280
0.381230
0.383190
0.385140
0.390030
0.398830
0.409580
0.423260
0.438910
0.456500
0.475070
0.491690
0.505380
0.521020
0.536660
0.551320
0.564030
0.575760
0.586510
0.596290
0.604110
0.609970
0.616810
0.621700
0.623660
0.624630
0.626590
0.626590
0.625610
0.623660
0.621700
0.617790
0.612900
0.608020
0.602150
0.595310
0.588470
0.580650
0.571850
0.562070
0.552300
0.542520
0.533720
0.526880
0.520040
0.513200
0.507330
0.500490
0.495600
0.492670
0.488760
0.485830
0.480940
0.476050
0.469210
0.462370
0.455520
0.446730
0.439880
0.435000
0.431090
0.428150
0.427170
0.425220
0.423260
0.420330
0.416420
0.411530
0.406650
0.400780
0.395890
0.392960
0.389050
0.387100
0.385140
0.384160
0.382210
0.381230
0.381230
0.383190
0.389050
0.398830
0.411530
0.427170
0.443790
0.462370
0.478010
0.491690
0.506350
0.522970
0.538610
0.552300
0.565000
0.577710
0.589440
0.600200
0.608020
0.614860
0.619750
0.622680
0.623660
0.623660
0.623660
0.621700
0.619750
0.615840
0.610950
0.607040
0.601170
0.596290
0.591400
0.585530
0.579670
0.571850
0.564030
0.555230
0.545450
0.535680
0.525900
0.516130
0.507330
0.498530
0.491690
0.484850
0.479960
0.476050
0.470190
0.464320
0.458460
0.452590
0.445750
0.438910
0.433040
0.427170
0.420330
0.412510
0.405670
0.398830
0.391010
0.382210
0.375370
0.368520
0.364610
0.361680
0.358750
0.354840
0.351910
0.347020
0.343110
0.340180
0.337240
0.334310
0.331380
0.331380
0.332360
0.335290
0.342130
0.350930
0.362660
0.375370
0.389050
0.402740
0.415440
0.429130
0.443790
0.458460
0.472140
0.483870
0.494620
0.504400
0.514170
0.522970
0.529810
0.533720
0.536660
0.538610
0.539590
0.540570
0.540570
0.541540
0.542520
0.541540
0.540570
0.537630
0.533720
0.527860
0.521990
0.516130
0.507330
0.499510
0.491690
0.483870
0.475070
0.465300
0.456500
0.446730
0.439880
0.434020
0.428150
0.425220
0.423260
0.420330
0.422290
0.425220
0.422290
0.415440
0.407620
0.400780
0.393940
0.389050
0.386120
0.384160
0.383190
0.380250
0.377320
0.372430
0.366570
0.361680
0.356790
0.353860
0.350930
0.349950
0.348000
0.346040
0.345060
0.345060
0.343110
0.340180
0.337240
0.335290
0.334310
0.335290
0.339200
0.346040
0.354840
0.366570
0.379280
0.391980
0.405670
0.421310
0.435970
0.448680
0.461390
0.473120
0.483870
0.494620
0.504400
0.513200
0.521020
0.526880
0.532750
0.536660
0.539590
0.542520
0.544480
0.545450
0.545450
0.544480
0.542520
0.537630
0.531770
0.525900
0.519060
0.512220
0.505380
0.498530
0.491690
0.484850
0.478010
0.470190
0.462370
0.454550
0.445750
0.438910
0.433040
0.428150
0.423260
0.417400
0.412510
0.406650
0.400780
0.394920
0.389050
0.383190
0.379280
0.375370
0.372430
0.370480
0.366570
0.362660
0.358750
0.354840
0.350930
0.347020
0.342130
0.338220
0.334310
0.331380
0.329420
0.328450
0.327470
0.324540
0.321600
0.319650
0.317690
0.315740
0.314760
0.314760
0.317690
0.323560
0.332360
0.343110
0.355820
0.370480
0.388070
0.405670
0.421310
0.436950
0.451610
0.464320
0.476050
0.486800
0.497560
0.505380
0.512220
0.519060
0.524930
0.530790
0.535680
0.541540
0.545450
0.549360
0.552300
0.553270
0.553270
0.552300
0.549360
0.546430
0.541540
0.535680
0.527860
0.520040
0.512220
0.504400
0.496580
0.487780
0.478980
0.470190
0.464320
0.458460
0.453570
0.448680
0.442820
0.436950
0.430110
0.422290
0.414470
0.406650
0.400780
0.394920
0.390030
0.386120
0.384160
0.381230
0.377320
0.374390
0.370480
0.365590
0.361680
0.357770
0.354840
0.351910
0.349950
0.348000
0.345060
0.342130
0.337240
0.333330
0.330400
0.328450
0.326490
0.325510
0.326490
0.328450
0.333330
0.342130
0.350930
0.361680
0.376340
0.393940
0.411530
0.429130
0.444770
0.459430
0.474100
0.487780
0.500490
0.513200
0.523950
0.533720
0.544480
0.554250
0.562070
0.569890
0.576740
0.582600
0.586510
0.590420
0.591400
0.592380
0.592380
0.592380
0.591400
0.588470
0.585530
0.581620
0.577710
0.571850
0.565000
0.557180
0.549360
0.540570
0.531770
0.521990
0.513200
0.504400
0.494620
0.483870
0.475070
0.467250
0.460410
0.454550
0.448680
0.442820
0.437930
0.433040
0.429130
0.425220
0.420330
0.413490
0.406650
0.399800
0.392960
0.386120
0.380250
0.374390
0.370480
0.366570
0.363640
0.360700
0.356790
0.352880
0.348970
0.346040
0.343110
0.339200
0.337240
0.335290
0.346040
0.364610
0.376340
0.385140
0.393940
0.403710
0.414470
0.429130
0.444770
0.462370
0.479960
0.496580
0.514170
0.530790
0.546430
0.560120
0.571850
0.583580
0.594330
0.603130
0.610950
0.617790
0.624630
0.631480
0.638320
0.643210
0.648090
0.651030
0.653960
0.655910
0.657870
0.658850
0.657870
0.655910
0.651030
0.646140
0.639300
0.630500
0.621700
0.612900
0.605080
0.596290
0.587490
0.577710
0.568910
0.560120
0.552300
0.545450
0.538610
0.530790
0.521020
0.512220
0.505380
0.499510
0.492670
0.486800
0.481920
0.476050
0.471160
0.466280
0.460410
0.456500
0.451610
0.448680
0.444770
0.441840
0.437930
0.433040
0.426200
0.420330
0.415440
0.411530
0.407620
0.403710
0.400780
0.397850
0.396870
0.395890
0.396870
0.398830
0.403710
0.410560
0.421310
0.435970
0.452590
0.470190
0.487780
0.505380
0.522970
0.539590
0.552300
0.564030
0.574780
0.586510
0.598240
0.608020
0.617790
0.626590
0.635390
0.643210
0.650050
0.656890
0.660800
0.662760
0.664710
0.666670
0.666670
0.664710
0.661780
0.658850
0.654940
0.649070
0.643210
0.636360
0.628540
0.619750
0.611930
0.603130
0.592380
0.581620
0.570870
0.562070
0.554250
0.547410
0.540570
0.533720
0.526880
0.521990
0.516130
0.510260
0.505380
0.501470
0.496580
0.491690
0.485830
0.480940
0.476050
0.470190
0.464320
0.459430
0.454550
0.451610
0.447700
0.444770
0.440860
0.436950
0.432060
0.428150
0.424240
0.420330
0.417400
0.415440
0.415440
0.415440
0.415440
0.416420
0.420330
0.428150
0.437930
0.451610
0.469210
0.486800
0.504400
0.521990
0.539590
0.553270
0.565000
0.576740
0.588470
0.600200
0.610950
0.620720
0.630500
0.640270
0.649070
0.656890
0.663730
0.668620
0.670580
0.673510
0.674490
0.675460
0.674490
0.672530
0.668620
0.664710
0.660800
0.655910
0.650050
0.642230
0.634410
0.626590
0.617790
0.608990
0.601170
0.593350
0.585530
0.577710
0.569890
0.561090
0.554250
0.547410
0.540570
0.535680
0.528840
0.521990
0.516130
0.509290
0.504400
0.500490
0.495600
0.490710
0.485830
0.480940
0.476050
0.472140
0.468230
0.463340
0.458460
0.454550
0.450640
0.445750
0.441840
0.436950
0.432060
0.428150
0.424240
0.421310
0.420330
0.420330
0.421310
0.425220
0.431090
0.439880
0.451610
0.465300
0.479960
0.496580
0.513200
0.527860
0.540570
0.555230
0.569890
0.585530
0.599220
0.610950
0.622680
0.633430
0.644180
0.652980
0.659820
0.665690
0.670580
0.672530
0.675460
0.677420
0.668620
0.653960
0.645160
0.638320
0.632450
0.627570
0.623660
0.619750
0.614860
0.609970
0.603130
0.594330
0.585530
0.577710
0.568910
0.561090
0.553270
0.544480
0.536660
0.529810
0.523950
0.519060
0.513200
0.508310
0.501470
0.495600
0.490710
0.485830
0.480940
0.476050
0.471160
0.466280
0.461390
0.457480
0.453570
0.448680
0.443790
0.438910
0.434020
0.429130
0.425220
0.422290
0.418380
0.415440
0.412510
0.409580
0.406650
0.404690
0.402740
0.400780
0.400780
0.402740
0.407620
0.414470
0.424240
0.435970
0.450640
0.466280
0.480940
0.495600
0.512220
0.528840
0.544480
0.560120
0.572830
0.583580
0.591400
0.599220
0.606060
0.612900
0.619750
0.625610
0.629520
0.634410
0.639300
0.643210
0.645160
0.646140
0.645160
0.642230
0.638320
0.634410
0.629520
0.624630
0.619750
0.613880
0.606060
0.597260
0.588470
0.579670
0.570870
0.563050
0.554250
0.546430
0.538610
0.531770
0.525900
0.520040
0.514170
0.508310
0.502440
0.495600
0.489740
0.483870
0.478980
0.476050
0.473120
0.470190
0.467250
0.464320
0.460410
0.456500
0.450640
0.445750
0.439880
0.434020
0.428150
0.424240
0.420330
0.417400
0.414470
0.412510
0.411530
0.410560
0.409580
0.409580
0.409580
0.410560
0.414470
0.420330
0.429130
0.440860
0.453570
0.465300
0.477030
0.490710
0.505380
0.519060
0.533720
0.548390
0.562070
0.574780
0.586510
0.597260
0.606060
0.612900
0.617790
0.621700
0.625610
0.629520
0.633430
0.636360
0.639300
0.640270
0.641250
0.639300
0.636360
0.631480
0.626590
0.621700
0.615840
0.609970
0.603130
0.596290
0.588470
0.580650
0.571850
0.562070
0.552300
0.543500
0.535680
0.528840
0.522970
0.519060
0.515150
0.512220
0.508310
0.503420
0.498530
0.491690
0.485830
0.479960
0.474100
0.469210
0.465300
0.462370
0.458460
0.455520
0.450640
0.446730
0.441840
0.436950
0.432060
0.428150
0.424240
0.422290
0.420330
0.419350
0.418380
0.416420
0.413490
0.411530
0.410560
0.410560
0.412510
0.417400
0.425220
0.435970
0.447700
0.459430
0.474100
0.490710
0.507330
0.522970
0.537630
0.551320
0.564030
0.574780
0.584560
0.594330
0.602150
0.608990
0.616810
0.624630
0.630500
0.635390
0.638320
0.640270
0.642230
0.642230
0.642230
0.640270
0.639300
0.637340
0.633430
0.628540
0.622680
0.614860
0.605080
0.595310
0.585530
0.575760
0.568910
0.562070
0.556210
0.550340
0.544480
0.537630
0.529810
0.522970
0.517110
0.510260
0.503420
0.497560
0.490710
0.484850
0.471160
0.453570
0.442820
0.435970
0.431090
0.426200
0.422290
0.419350
0.416420
0.414470
0.412510
0.409580
0.405670
0.400780
0.396870
0.392960
0.389050
0.385140
0.381230
0.378300
0.375370
0.374390
0.374390
0.376340
0.379280
0.385140
0.392960
0.402740
0.413490
0.426200
0.441840
0.458460
0.475070
0.490710
0.506350
0.521990
0.536660
0.549360
0.561090
0.570870
0.579670
0.588470
0.596290
0.603130
0.609970
0.615840
0.620720
0.624630
0.627570
0.628540
0.628540
0.627570
0.624630
0.619750
0.615840
0.610950
0.606060
0.599220
0.592380
0.584560
0.575760
0.565980
0.556210
0.546430
0.538610
0.530790
0.522970
0.515150
0.508310
0.501470
0.495600
0.490710
0.485830
0.480940
0.477030
0.472140
0.466280
0.462370
0.457480
0.451610
0.445750
0.439880
0.435000
0.429130
0.423260
0.418380
0.412510
0.407620
0.401760
0.397850
0.394920
0.391010
0.389050
0.387100
0.384160
0.380250
0.377320
0.374390
0.373410
0.372430
0.373410
0.376340
0.380250
0.387100
0.396870
0.409580
0.425220
0.441840
0.459430
0.478010
0.494620
0.512220
0.527860
0.542520
0.553270
0.562070
0.569890
0.577710
0.586510
0.594330
0.603130
0.609970
0.616810
0.621700
0.626590
0.628540
0.628540
0.627570
0.625610
0.623660
0.620720
0.616810
0.610950
0.605080
0.598240
0.590420
0.580650
0.571850
0.563050
0.556210
0.550340
0.543500
0.535680
0.527860
0.519060
0.511240
0.503420
0.495600
0.488760
0.483870
0.478980
0.475070
0.471160
0.466280
0.460410
0.454550
0.447700
0.441840
0.436950
0.431090
0.425220
0.420330
0.414470
0.409580
0.404690
0.402740
0.399800
0.396870
0.392960
0.390030
0.386120
0.382210
0.379280
0.375370
0.372430
0.370480
0.370480
0.371460
0.375370
0.381230
0.389050
0.399800
0.412510
0.427170
0.443790
0.462370
0.481920
0.501470
0.519060
0.534700
0.546430
0.558160
0.567940
0.576740
0.585530
0.592380
0.600200
0.606060
0.610950
0.613880
0.616810
0.617790
0.618770
0.619750
0.620720
0.620720
0.619750
0.615840
0.611930
0.606060
0.599220
0.590420
0.580650
0.570870
0.561090
0.553270
0.544480
0.535680
0.527860
0.520040
0.511240
0.503420
0.495600
0.487780
0.481920
0.476050
0.471160
0.468230
0.464320
0.459430
0.453570
0.447700
0.441840
0.435970
0.431090
0.426200
0.422290
0.417400
0.413490
0.410560
0.407620
0.403710
0.399800
0.396870
0.392960
0.389050
0.385140
0.381230
0.377320
0.372430
0.367550
0.364610
0.361680
0.360700
0.361680
0.364610
0.371460
0.382210
0.393940
0.408600
0.425220
0.442820
0.462370
0.481920
0.497560
0.511240
0.526880
0.541540
0.554250
0.566960
0.577710
0.587490
0.596290
0.604110
0.611930
0.617790
0.622680
0.625610
0.627570
0.629520
0.630500
0.630500
0.627570
0.622680
0.617790
0.610950
0.604110
0.596290
0.586510
0.578690
0.570870
0.562070
0.554250
0.546430
0.538610
0.530790
0.521990
0.514170
0.505380
0.497560
0.490710
0.483870
0.478010
0.471160
0.463340
0.456500
0.449660
0.443790
0.438910
0.435000
0.432060
0.430110
0.428150
0.425220
0.421310
0.418380
0.413490
0.408600
0.402740
0.397850
0.391980
0.388070
0.384160
0.380250
0.376340
0.372430
0.369500
0.367550
0.366570
0.365590
0.365590
0.367550
0.370480
0.376340
0.385140
0.396870
0.410560
0.425220
0.441840
0.457480
0.472140
0.487780
0.504400
0.520040
0.534700
0.549360
0.563050
0.575760
0.586510
0.597260
0.605080
0.610950
0.613880
0.617790
0.619750
0.620720
0.620720
0.620720
0.620720
0.619750
0.617790
0.613880
0.608990
0.601170
0.593350
0.585530
0.575760
0.565980
0.557180
0.547410
0.538610
0.528840
0.519060
0.511240
0.503420
0.497560
0.493650
0.489740
0.486800
0.481920
0.477030
0.470190
0.463340
0.455520
0.447700
0.440860
0.434020
0.428150
0.424240
0.420330
0.418380
0.414470
0.410560
0.407620
0.403710
0.399800
0.395890
0.391980
0.388070
0.384160
0.380250
0.378300
0.377320
0.376340
0.374390
0.373410
0.373410
0.372430
0.373410
0.375370
0.379280
0.386120
0.394920
0.405670
0.418380
0.434020
0.450640
0.468230
0.486800
0.503420
0.520040
0.534700
0.548390
0.561090
0.572830
0.583580
0.591400
0.598240
0.605080
0.610950
0.614860
0.617790
0.618770
0.619750
0.619750
0.619750
0.617790
0.614860
0.611930
0.608020
0.602150
0.596290
0.589440
0.581620
0.572830
0.565000
0.556210
0.547410
0.537630
0.528840
0.519060
0.511240
0.504400
0.497560
0.489740
0.482890
0.477030
0.472140
0.466280
0.461390
0.455520
0.450640
0.446730
0.443790
0.440860
0.437930
0.434020
0.429130
0.423260
0.418380
0.412510
0.406650
0.401760
0.395890
0.391980
0.389050
0.388070
0.386120
0.384160
0.381230
0.377320
0.374390
0.371460
0.370480
0.369500
0.369500
0.372430
0.377320
0.384160
0.391980
0.402740
0.417400
0.434020
0.451610
0.470190
0.488760
0.505380
0.521990
0.536660
0.550340
0.562070
0.571850
0.578690
0.586510
0.593350
0.599220
0.605080
0.609970
0.613880
0.616810
0.618770
0.618770
0.621700
0.623660
0.623660
0.622680
0.618770
0.613880
0.607040
0.598240
0.587490
0.577710
0.566960
0.557180
0.547410
0.538610
0.530790
0.522970
0.515150
0.508310
0.502440
0.497560
0.493650
0.489740
0.484850
0.478980
0.473120
0.466280
0.460410
0.453570
0.447700
0.440860
0.435000
0.429130
0.424240
0.419350
0.415440
0.411530
0.407620
0.404690
0.399800
0.395890
0.391980
0.387100
0.383190
0.379280
0.375370
0.371460
0.367550
0.365590
0.364610
0.363640
0.364610
0.366570
0.370480
0.377320
0.387100
0.399800
0.416420
0.435000
0.454550
0.473120
0.491690
0.508310
0.523950
0.538610
0.550340
0.561090
0.571850
0.583580
0.593350
0.602150
0.611930
0.619750
0.626590
0.630500
0.633430
0.634410
0.633430
0.630500
0.625610
0.621700
0.616810
0.612900
0.608990
0.603130
0.596290
0.588470
0.579670
0.569890
0.562070
0.554250
0.546430
0.537630
0.528840
0.519060
0.509290
0.499510
0.488760
0.479960
0.472140
0.466280
0.460410
0.456500
0.453570
0.449660
0.445750
0.440860
0.435970
0.431090
0.425220
0.419350
0.414470
0.409580
0.405670
0.401760
0.397850
0.393940
0.389050
0.385140
0.381230
0.377320
0.373410
0.369500
0.365590
0.362660
0.360700
0.359730
0.359730
0.360700
0.363640
0.368520
0.375370
0.384160
0.395890
0.410560
0.427170
0.443790
0.462370
0.480940
0.496580
0.510260
0.524930
0.538610
0.551320
0.563050
0.571850
0.580650
0.589440
0.597260
0.605080
0.611930
0.618770
0.622680
0.624630
0.625610
0.625610
0.624630
0.621700
0.617790
0.613880
0.607040
0.600200
0.590420
0.580650
0.571850
0.563050
0.554250
0.544480
0.535680
0.528840
0.521020
0.513200
0.504400
0.496580
0.488760
0.478980
0.468230
0.458460
0.449660
0.442820
0.435970
0.429130
0.423260
0.415440
0.408600
0.401760
0.393940
0.388070
0.382210
0.378300
0.375370
0.371460
0.366570
0.360700
0.354840
0.349950
0.346040
0.342130
0.337240
0.333330
0.329420
0.325510
0.322580
0.321600
0.320630
0.320630
0.322580
0.325510
0.331380
0.339200
0.349950
0.362660
0.376340
0.391010
0.404690
0.419350
0.434020
0.449660
0.465300
0.480940
0.495600
0.507330
0.518080
0.527860
0.535680
0.541540
0.546430
0.549360
0.551320
0.553270
0.555230
0.557180
0.558160
0.559140
0.557180
0.554250
0.549360
0.544480
0.537630
0.530790
0.522970
0.515150
0.506350
0.496580
0.485830
0.475070
0.463340
0.452590
0.444770
0.437930
0.432060
0.426200
0.421310
0.418380
0.414470
0.410560
0.404690
0.406650
0.412510
0.412510
0.409580
0.404690
0.400780
0.396870
0.393940
0.391010
0.388070
0.385140
0.381230
0.377320
0.373410
0.368520
0.364610
0.360700
0.356790
0.353860
0.351910
0.350930
0.349950
0.348000
0.344090
0.341150
0.338220
0.337240
0.338220
0.342130
0.348970
0.358750
0.370480
0.383190
0.395890
0.410560
0.426200
0.441840
0.457480
0.471160
0.483870
0.495600
0.506350
0.516130
0.523950
0.529810
0.534700
0.538610
0.543500
0.548390
0.552300
0.554250
0.556210
0.555230
0.554250
0.553270
0.550340
0.545450
0.541540
0.536660
0.529810
0.521020
0.511240
0.502440
0.493650
0.485830
0.478980
0.472140
0.467250
0.460410
0.454550
0.448680
0.442820
0.436950
0.430110
0.423260
0.417400
0.412510
0.408600
0.404690
0.400780
0.395890
0.391010
0.386120
0.381230
0.375370
0.370480
0.364610
0.360700
0.356790
0.351910
0.347020
0.343110
0.339200
0.336270
0.333330
0.331380
0.329420
0.326490
0.323560
0.319650
0.316720
0.314760
0.313780
0.312810
0.314760
0.318670
0.326490
0.335290
0.346040
0.359730
0.375370
0.391010
0.406650
0.423260
0.438910
0.453570
0.467250
0.479960
0.490710
0.500490
0.509290
0.518080
0.527860
0.535680
0.541540
0.545450
0.548390
0.548390
0.548390
0.549360
0.550340
0.550340
0.549360
0.548390
0.546430
0.542520
0.537630
0.531770
0.524930
0.518080
0.510260
0.502440
0.493650
0.485830
0.478010
0.472140
0.466280
0.459430
0.453570
0.447700
0.442820
0.436950
0.432060
0.426200
0.419350
0.413490
0.406650
0.401760
0.398830
0.395890
0.391010
0.387100
0.381230
0.375370
0.369500
0.363640
0.358750
0.353860
0.350930
0.348970
0.348000
0.346040
0.343110
0.339200
0.336270
0.332360
0.329420
0.327470
0.325510
0.323560
0.322580
0.323560
0.327470
0.333330
0.343110
0.355820
0.370480
0.388070
0.406650
0.425220
0.442820
0.459430
0.475070
0.489740
0.501470
0.513200
0.524930
0.536660
0.548390
0.559140
0.567940
0.575760
0.580650
0.585530
0.589440
0.592380
0.594330
0.595310
0.595310
0.594330
0.593350
0.590420
0.587490
0.583580
0.579670
0.573800
0.566960
0.560120
0.553270
0.545450
0.538610
0.530790
0.522970
0.514170
0.505380
0.496580
0.487780
0.479960
0.472140
0.465300
0.458460
0.451610
0.446730
0.442820
0.437930
0.433040
0.426200
0.420330
0.413490
0.406650
0.399800
0.394920
0.389050
0.383190
0.379280
0.375370
0.370480
0.366570
0.362660
0.359730
0.356790
0.354840
0.352880
0.350930
0.349950
0.348970
0.361680
0.382210
0.395890
0.406650
0.418380
0.430110
0.444770
0.459430
0.476050
0.493650
0.511240
0.527860
0.544480
0.557180
0.567940
0.579670
0.591400
0.603130
0.612900
0.621700
0.630500
0.638320
0.645160
0.652000
0.657870
0.660800
0.662760
0.662760
0.662760
0.662760
0.662760
0.661780
0.659820
0.655910
0.651030
0.643210
0.634410
0.625610
0.616810
0.608990
0.599220
0.590420
0.581620
0.572830
0.565000
0.558160
0.551320
0.543500
0.535680
0.527860
0.521020
0.515150
0.509290
0.503420
0.496580
0.489740
0.482890
0.477030
0.471160
0.466280
0.462370
0.458460
0.454550
0.451610
0.449660
0.446730
0.442820
0.437930
0.433040
0.427170
0.421310
0.415440
0.410560
0.406650
0.403710
0.402740
0.402740
0.403710
0.405670
0.408600
0.413490
0.421310
0.432060
0.445750
0.461390
0.478980
0.496580
0.515150
0.530790
0.545450
0.560120
0.575760
0.591400
0.604110
0.616810
0.627570
0.638320
0.648090
0.657870
0.664710
0.670580
0.673510
0.678400
0.681330
0.683280
0.686220
0.687190
0.686220
0.683280
0.680350
0.676440
0.671550
0.666670
0.660800
0.654940
0.649070
0.641250
0.632450
0.623660
0.615840
0.607040
0.598240
0.589440
0.580650
0.572830
0.565980
0.560120
0.554250
0.546430
0.539590
0.531770
0.524930
0.518080
0.512220
0.507330
0.501470
0.496580
0.491690
0.486800
0.481920
0.476050
0.471160
0.466280
0.461390
0.458460
0.454550
0.450640
0.447700
0.443790
0.440860
0.437930
0.436950
0.435000
0.433040
0.432060
0.433040
0.435970
0.441840
0.450640
0.461390
0.475070
0.491690
0.508310
0.522970
0.536660
0.552300
0.566960
0.582600
0.598240
0.611930
0.623660
0.634410
0.645160
0.653960
0.661780
0.667640
0.672530
0.677420
0.682310
0.686220
0.688170
0.691100
0.692080
0.692080
0.690130
0.687190
0.683280
0.678400
0.672530
0.666670
0.659820
0.651030
0.642230
0.633430
0.625610
0.616810
0.608020
0.600200
0.591400
0.582600
0.575760
0.569890
0.565000
0.558160
0.552300
0.545450
0.538610
0.531770
0.524930
0.518080
0.512220
0.507330
0.501470
0.497560
0.493650
0.490710
0.486800
0.481920
0.477030
0.472140
0.467250
0.463340
0.459430
0.456500
0.452590
0.448680
0.446730
0.443790
0.441840
0.441840
0.441840
0.444770
0.449660
0.457480
0.467250
0.478980
0.493650
0.509290
0.523950
0.537630
0.552300
0.566960
0.582600
0.598240
0.611930
0.623660
0.634410
0.645160
0.655910
0.665690
0.673510
0.678400
0.683280
0.688170
0.692080
0.695010
0.683280
0.661780
0.651030
0.644180
0.638320
0.633430
0.628540
0.623660
0.617790
0.611930
0.606060
0.599220
0.592380
0.583580
0.574780
0.564030
0.553270
0.543500
0.534700
0.526880
0.521020
0.516130
0.512220
0.508310
0.504400
0.500490
0.495600
0.490710
0.484850
0.478980
0.473120
0.468230
0.464320
0.460410
0.455520
0.450640
0.445750
0.440860
0.435970
0.432060
0.428150
0.424240
0.420330
0.416420
0.413490
0.412510
0.410560
0.409580
0.408600
0.408600
0.408600
0.408600
0.411530
0.416420
0.424240
0.435970
0.447700
0.460410
0.477030
0.493650
0.510260
0.525900
0.541540
0.556210
0.568910
0.580650
0.590420
0.601170
0.609970
0.616810
0.620720
0.625610
0.630500
0.634410
0.638320
0.640270
0.642230
0.642230
0.642230
0.640270
0.636360
0.632450
0.627570
0.623660
0.618770
0.612900
0.606060
0.597260
0.588470
0.579670
0.571850
0.564030
0.557180
0.549360
0.542520
0.535680
0.528840
0.521990
0.517110
0.512220
0.507330
0.502440
0.497560
0.491690
0.487780
0.482890
0.478980
0.475070
0.470190
0.465300
0.460410
0.456500
0.452590
0.450640
0.448680
0.445750
0.442820
0.437930
0.431090
0.425220
0.420330
0.416420
0.413490
0.411530
0.410560
0.410560
0.412510
0.414470
0.418380
0.423260
0.431090
0.439880
0.450640
0.463340
0.478010
0.493650
0.509290
0.524930
0.539590
0.554250
0.567940
0.579670
0.590420
0.600200
0.607040
0.611930
0.616810
0.621700
0.626590
0.631480
0.636360
0.641250
0.645160
0.647120
0.647120
0.645160
0.641250
0.635390
0.628540
0.621700
0.614860
0.608990
0.602150
0.596290
0.589440
0.583580
0.576740
0.569890
0.563050
0.557180
0.551320
0.544480
0.536660
0.530790
0.524930
0.520040
0.515150
0.510260
0.506350
0.501470
0.496580
0.492670
0.488760
0.484850
0.479960
0.474100
0.469210
0.463340
0.458460
0.453570
0.449660
0.446730
0.443790
0.439880
0.436950
0.435000
0.431090
0.427170
0.423260
0.420330
0.418380
0.417400
0.416420
0.416420
0.418380
0.422290
0.428150
0.435970
0.445750
0.457480
0.471160
0.485830
0.500490
0.516130
0.530790
0.545450
0.559140
0.572830
0.583580
0.592380
0.598240
0.605080
0.609970
0.614860
0.619750
0.622680
0.626590
0.628540
0.631480
0.632450
0.633430
0.633430
0.631480
0.628540
0.625610
0.620720
0.615840
0.608990
0.600200
0.591400
0.581620
0.571850
0.564030
0.556210
0.549360
0.544480
0.538610
0.533720
0.528840
0.523950
0.520040
0.516130
0.512220
0.508310
0.505380
0.500490
0.486800
0.468230
0.455520
0.445750
0.437930
0.432060
0.428150
0.424240
0.421310
0.419350
0.416420
0.412510
0.409580
0.405670
0.400780
0.395890
0.390030
0.384160
0.380250
0.376340
0.374390
0.371460
0.370480
0.369500
0.369500
0.371460
0.374390
0.380250
0.389050
0.400780
0.415440
0.430110
0.445750
0.462370
0.478010
0.492670
0.508310
0.521020
0.531770
0.542520
0.554250
0.565000
0.573800
0.582600
0.590420
0.597260
0.601170
0.604110
0.605080
0.604110
0.602150
0.600200
0.596290
0.593350
0.588470
0.583580
0.577710
0.571850
0.565980
0.558160
0.551320
0.545450
0.539590
0.532750
0.525900
0.518080
0.511240
0.503420
0.495600
0.488760
0.481920
0.477030
0.473120
0.469210
0.465300
0.461390
0.458460
0.454550
0.449660
0.442820
0.435970
0.430110
0.424240
0.418380
0.414470
0.410560
0.406650
0.404690
0.402740
0.400780
0.397850
0.395890
0.392960
0.390030
0.387100
0.384160
0.380250
0.376340
0.372430
0.370480
0.369500
0.369500
0.371460
0.375370
0.383190
0.393940
0.407620
0.423260
0.439880
0.458460
0.476050
0.493650
0.507330
0.518080
0.530790
0.541540
0.553270
0.563050
0.570870
0.578690
0.583580
0.588470
0.592380
0.595310
0.597260
0.599220
0.599220
0.599220
0.598240
0.596290
0.593350
0.588470
0.582600
0.575760
0.567940
0.558160
0.548390
0.540570
0.533720
0.526880
0.521020
0.515150
0.508310
0.501470
0.494620
0.486800
0.480940
0.476050
0.471160
0.467250
0.463340
0.460410
0.456500
0.451610
0.446730
0.440860
0.434020
0.429130
0.425220
0.422290
0.419350
0.417400
0.415440
0.414470
0.411530
0.407620
0.402740
0.397850
0.391980
0.386120
0.381230
0.377320
0.372430
0.369500
0.366570
0.365590
0.364610
0.365590
0.368520
0.372430
0.380250
0.391010
0.403710
0.419350
0.435000
0.451610
0.468230
0.481920
0.493650
0.506350
0.519060
0.530790
0.542520
0.553270
0.563050
0.572830
0.582600
0.590420
0.596290
0.599220
0.600200
0.600200
0.598240
0.596290
0.592380
0.589440
0.585530
0.581620
0.577710
0.573800
0.568910
0.562070
0.555230
0.547410
0.540570
0.532750
0.526880
0.521020
0.515150
0.508310
0.500490
0.491690
0.483870
0.477030
0.470190
0.464320
0.460410
0.455520
0.451610
0.445750
0.440860
0.435970
0.430110
0.424240
0.418380
0.413490
0.407620
0.404690
0.400780
0.396870
0.392960
0.390030
0.387100
0.385140
0.383190
0.380250
0.378300
0.375370
0.372430
0.369500
0.368520
0.366570
0.364610
0.363640
0.363640
0.365590
0.369500
0.376340
0.387100
0.400780
0.415440
0.432060
0.447700
0.463340
0.481920
0.500490
0.520040
0.537630
0.553270
0.566960
0.576740
0.583580
0.590420
0.597260
0.603130
0.608020
0.613880
0.619750
0.624630
0.628540
0.629520
0.628540
0.625610
0.619750
0.612900
0.605080
0.596290
0.587490
0.579670
0.571850
0.565000
0.557180
0.549360
0.540570
0.531770
0.524930
0.517110
0.510260
0.503420
0.498530
0.493650
0.488760
0.482890
0.476050
0.471160
0.466280
0.461390
0.457480
0.452590
0.448680
0.442820
0.437930
0.434020
0.430110
0.426200
0.423260
0.419350
0.415440
0.410560
0.404690
0.398830
0.392960
0.386120
0.380250
0.376340
0.373410
0.371460
0.369500
0.367550
0.368520
0.369500
0.372430
0.377320
0.384160
0.392960
0.403710
0.416420
0.428150
0.440860
0.455520
0.472140
0.491690
0.510260
0.527860
0.544480
0.560120
0.572830
0.583580
0.592380
0.598240
0.602150
0.606060
0.609970
0.612900
0.614860
0.615840
0.614860
0.612900
0.608990
0.604110
0.597260
0.589440
0.581620
0.574780
0.567940
0.560120
0.550340
0.540570
0.529810
0.519060
0.509290
0.499510
0.489740
0.479960
0.472140
0.464320
0.456500
0.447700
0.439880
0.433040
0.426200
0.419350
0.412510
0.405670
0.399800
0.392960
0.386120
0.381230
0.376340
0.370480
0.366570
0.361680
0.358750
0.355820
0.352880
0.349950
0.346040
0.341150
0.337240
0.334310
0.331380
0.326490
0.320630
0.314760
0.309870
0.304990
0.302050
0.300100
0.301080
0.304990
0.311830
0.321600
0.331380
0.342130
0.355820
0.371460
0.389050
0.406650
0.423260
0.438910
0.453570
0.467250
0.479960
0.489740
0.496580
0.502440
0.508310
0.515150
0.520040
0.523950
0.526880
0.528840
0.529810
0.528840
0.525900
0.521990
0.516130
0.510260
0.503420
0.495600
0.486800
0.478010
0.468230
0.458460
0.448680
0.440860
0.433040
0.427170
0.420330
0.415440
0.410560
0.404690
0.398830
0.392960
0.386120
0.378300
0.372430
0.366570
0.361680
0.356790
0.352880
0.348970
0.347020
0.343110
0.339200
0.335290
0.330400
0.326490
0.321600
0.314760
0.307920
0.301080
0.295210
0.290320
0.288370
0.287390
0.286410
0.285430
0.283480
0.280550
0.275660
0.270770
0.265880
0.263930
0.262950
0.264910
0.268820
0.276640
0.288370
0.302050
0.317690
0.336270
0.355820
0.374390
0.391010
0.407620
0.424240
0.437930
0.451610
0.463340
0.475070
0.485830
0.494620
0.502440
0.507330
0.511240
0.513200
0.513200
0.511240
0.510260
0.508310
0.506350
0.514170
0.526880
0.531770
0.531770
0.530790
0.527860
0.522970
0.517110
0.509290
0.500490
0.493650
0.486800
0.481920
0.478010
0.474100
0.469210
0.464320
0.458460
0.451610
0.445750
0.440860
0.435970
0.433040
0.429130
0.426200
0.422290
0.417400
0.411530
0.406650
0.400780
0.394920
0.391010
0.387100
0.383190
0.381230
0.378300
0.376340
0.374390
0.373410
0.370480
0.366570
0.362660
0.357770
0.353860
0.349950
0.347020
0.344090
0.342130
0.341150
0.342130
0.344090
0.348970
0.355820
0.365590
0.377320
0.390030
0.404690
0.419350
0.434020
0.449660
0.464320
0.477030
0.486800
0.495600
0.505380
0.514170
0.522970
0.530790
0.537630
0.542520
0.548390
0.553270
0.557180
0.560120
0.562070
0.563050
0.562070
0.561090
0.558160
0.554250
0.549360
0.545450
0.541540
0.537630
0.531770
0.525900
0.519060
0.513200
0.508310
0.501470
0.494620
0.487780
0.481920
0.476050
0.469210
0.462370
0.455520
0.447700
0.440860
0.435970
0.433040
0.429130
0.425220
0.421310
0.416420
0.412510
0.407620
0.402740
0.397850
0.393940
0.389050
0.384160
0.381230
0.378300
0.374390
0.369500
0.365590
0.362660
0.360700
0.358750
0.356790
0.354840
0.353860
0.351910
0.350930
0.350930
0.350930
0.352880
0.356790
0.363640
0.372430
0.383190
0.396870
0.412510
0.429130
0.446730
0.463340
0.478010
0.491690
0.505380
0.519060
0.531770
0.543500
0.553270
0.562070
0.569890
0.576740
0.583580
0.589440
0.593350
0.596290
0.599220
0.602150
0.603130
0.603130
0.601170
0.598240
0.596290
0.593350
0.589440
0.584560
0.578690
0.572830
0.566960
0.559140
0.550340
0.542520
0.534700
0.526880
0.519060
0.511240
0.503420
0.497560
0.491690
0.486800
0.482890
0.477030
0.471160
0.463340
0.455520
0.448680
0.441840
0.436950
0.433040
0.429130
0.425220
0.423260
0.421310
0.417400
0.412510
0.407620
0.403710
0.399800
0.395890
0.391980
0.388070
0.383190
0.378300
0.374390
0.372430
0.371460
0.370480
0.372430
0.376340
0.382210
0.390030
0.400780
0.413490
0.429130
0.445750
0.463340
0.478980
0.491690
0.504400
0.518080
0.530790
0.542520
0.554250
0.565980
0.575760
0.585530
0.593350
0.599220
0.604110
0.607040
0.609970
0.612900
0.615840
0.618770
0.620720
0.620720
0.618770
0.616810
0.612900
0.608990
0.603130
0.597260
0.593350
0.588470
0.582600
0.576740
0.568910
0.561090
0.552300
0.542520
0.532750
0.523950
0.516130
0.508310
0.502440
0.497560
0.492670
0.487780
0.481920
0.475070
0.468230
0.466280
0.466280
0.464320
0.460410
0.456500
0.451610
0.447700
0.441840
0.436950
0.433040
0.429130
0.425220
0.422290
0.418380
0.415440
0.411530
0.407620
0.403710
0.401760
0.400780
0.398830
0.397850
0.395890
0.394920
0.394920
0.396870
0.400780
0.407620
0.417400
0.430110
0.443790
0.456500
0.473120
0.488760
0.506350
0.522970
0.539590
0.555230
0.569890
0.582600
0.594330
0.604110
0.612900
0.618770
0.623660
0.629520
0.636360
0.643210
0.650050
0.655910
0.659820
0.662760
0.664710
0.665690
0.664710
0.663730
0.660800
0.657870
0.652980
0.648090
0.641250
0.632450
0.623660
0.614860
0.607040
0.598240
0.590420
0.581620
0.573800
0.566960
0.560120
0.553270
0.546430
0.540570
0.532750
0.524930
0.518080
0.512220
0.507330
0.501470
0.497560
0.493650
0.489740
0.484850
0.479960
0.475070
0.470190
0.464320
0.459430
0.455520
0.450640
0.445750
0.440860
0.436950
0.434020
0.431090
0.428150
0.425220
0.422290
0.418380
0.416420
0.415440
0.417400
0.423260
0.432060
0.441840
0.452590
0.466280
0.482890
0.498530
0.514170
0.528840
0.544480
0.558160
0.572830
0.586510
0.598240
0.609970
0.617790
0.624630
0.631480
0.638320
0.645160
0.651030
0.655910
0.658850
0.660800
0.660800
0.661780
0.661780
0.661780
0.660800
0.659820
0.657870
0.654940
0.651030
0.646140
0.640270
0.633430
0.626590
0.618770
0.610950
0.603130
0.595310
0.587490
0.576740
0.566960
0.557180
0.549360
0.542520
0.537630
0.531770
0.525900
0.520040
0.514170
0.509290
0.505380
0.501470
0.496580
0.491690
0.486800
0.480940
0.476050
0.471160
0.465300
0.461390
0.457480
0.454550
0.452590
0.449660
0.446730
0.443790
0.440860
0.438910
0.437930
0.436950
0.436950
0.438910
0.441840
0.447700
0.454550
0.463340
0.474100
0.488760
0.504400
0.521020
0.537630
0.554250
0.569890
0.584560
0.599220
0.610950
0.619750
0.627570
0.634410
0.642230
0.649070
0.654940
0.660800
0.665690
0.669600
0.672530
0.675460
0.676440
0.677420
0.676440
0.674490
0.670580
0.667640
0.663730
0.658850
0.652000
0.644180
0.634410
0.625610
0.615840
0.608020
0.601170
0.595310
0.589440
0.582600
0.574780
0.566960
0.560120
0.553270
0.547410
0.542520
0.536660
0.531770
0.525900
0.521020
0.516130
0.511240
0.506350
0.501470
0.496580
0.491690
0.486800
0.483870
0.480940
0.478980
0.477030
0.474100
0.471160
0.467250
0.460410
0.454550
0.449660
0.445750
0.441840
0.439880
0.438910
0.438910
0.441840
0.446730
0.452590
0.451610
0.447700
0.454550
0.465300
0.478980
0.493650
0.509290
0.523950
0.538610
0.553270
0.565980
0.576740
0.584560
0.593350
0.600200
0.608020
0.614860
0.621700
0.627570
0.635390
0.641250
0.644180
0.647120
0.647120
0.646140
0.643210
0.639300
0.634410
0.629520
0.624630
0.618770
0.612900
0.605080
0.597260
0.587490
0.578690
0.570870
0.564030
0.556210
0.549360
0.542520
0.536660
0.530790
0.524930
0.519060
0.513200
0.507330
0.502440
0.497560
0.493650
0.488760
0.482890
0.478010
0.472140
0.467250
0.462370
0.458460
0.454550
0.451610
0.448680
0.443790
0.439880
0.436950
0.433040
0.428150
0.425220
0.421310
0.418380
0.415440
0.413490
0.412510
0.412510
0.413490
0.416420
0.420330
0.426200
0.435000
0.444770
0.457480
0.471160
0.485830
0.500490
0.516130
0.530790
0.545450
0.559140
0.570870
0.579670
0.588470
0.597260
0.605080
0.611930
0.618770
0.624630
0.629520
0.634410
0.639300
0.642230
0.645160
0.646140
0.646140
0.644180
0.641250
0.637340
0.631480
0.625610
0.618770
0.612900
0.606060
0.599220
0.592380
0.585530
0.578690
0.570870
0.564030
0.557180
0.550340
0.543500
0.536660
0.530790
0.524930
0.518080
0.512220
0.506350
0.500490
0.495600
0.490710
0.485830
0.479960
0.476050
0.473120
0.470190
0.466280
0.462370
0.457480
0.452590
0.448680
0.444770
0.441840
0.437930
0.435000
0.432060
0.428150
0.424240
0.421310
0.418380
0.417400
0.418380
0.420330
0.423260
0.427170
0.434020
0.444770
0.456500
0.468230
0.480940
0.494620
0.506350
0.519060
0.530790
0.541540
0.552300
0.562070
0.573800
0.585530
0.598240
0.608990
0.617790
0.624630
0.628540
0.631480
0.634410
0.635390
0.634410
0.633430
0.631480
0.629520
0.625610
0.622680
0.619750
0.615840
0.611930
0.607040
0.601170
0.594330
0.588470
0.582600
0.576740
0.571850
0.566960
0.561090
0.554250
0.546430
0.538610
0.530790
0.523950
0.517110
0.510260
0.505380
0.501470
0.497560
0.494620
0.490710
0.486800
0.481920
0.477030
0.473120
0.469210
0.465300
0.460410
0.456500
0.451610
0.448680
0.444770
0.440860
0.436950
0.433040
0.429130
0.426200
0.424240
0.421310
0.420330
0.419350
0.418380
0.419350
0.420330
0.422290
0.427170
0.434020
0.442820
0.454550
0.468230
0.482890
0.498530
0.514170
0.529810
0.542520
0.554250
0.566960
0.578690
0.589440
0.599220
0.608020
0.614860
0.619750
0.623660
0.625610
0.627570
0.628540
0.629520
0.629520
0.628540
0.627570
0.626590
0.624630
0.621700
0.612900
0.602150
0.591400
0.579670
0.568910
0.559140
0.551320
0.543500
0.536660
0.529810
0.523950
0.516130
0.509290
0.501470
0.493650
0.486800
0.479960
0.474100
0.470190
0.464320
0.458460
0.454550
0.450640
0.446730
0.440860
0.435000
0.429130
0.423260
0.417400
0.412510
0.408600
0.405670
0.401760
0.398830
0.393940
0.388070
0.383190
0.377320
0.373410
0.369500
0.367550
0.365590
0.365590
0.366570
0.367550
0.369500
0.372430
0.378300
0.386120
0.396870
0.409580
0.425220
0.441840
0.460410
0.478010
0.493650
0.507330
0.522970
0.538610
0.552300
0.564030
0.575760
0.584560
0.592380
0.598240
0.603130
0.607040
0.608990
0.610950
0.612900
0.613880
0.612900
0.610950
0.608990
0.605080
0.599220
0.593350
0.585530
0.578690
0.569890
0.562070
0.554250
0.545450
0.536660
0.527860
0.520040
0.512220
0.505380
0.499510
0.494620
0.488760
0.482890
0.478010
0.473120
0.467250
0.460410
0.454550
0.449660
0.444770
0.439880
0.435970
0.431090
0.426200
0.421310
0.416420
0.412510
0.407620
0.401760
0.396870
0.391010
0.385140
0.380250
0.377320
0.374390
0.373410
0.372430
0.370480
0.368520
0.366570
0.364610
0.364610
0.366570
0.369500
0.376340
0.385140
0.396870
0.410560
0.426200
0.442820
0.458460
0.472140
0.488760
0.505380
0.521990
0.536660
0.550340
0.562070
0.571850
0.580650
0.586510
0.591400
0.596290
0.600200
0.604110
0.607040
0.609970
0.611930
0.612900
0.611930
0.610950
0.608990
0.606060
0.601170
0.593350
0.585530
0.575760
0.565980
0.556210
0.547410
0.540570
0.532750
0.524930
0.517110
0.509290
0.502440
0.495600
0.489740
0.483870
0.478980
0.474100
0.468230
0.463340
0.456500
0.448680
0.441840
0.435970
0.430110
0.425220
0.421310
0.419350
0.417400
0.414470
0.411530
0.407620
0.403710
0.398830
0.393940
0.389050
0.383190
0.378300
0.374390
0.371460
0.369500
0.369500
0.368520
0.368520
0.369500
0.372430
0.375370
0.382210
0.391010
0.403710
0.419350
0.435970
0.451610
0.465300
0.478980
0.492670
0.506350
0.520040
0.532750
0.545450
0.557180
0.567940
0.576740
0.585530
0.593350
0.600200
0.604110
0.607040
0.608990
0.609970
0.609970
0.609970
0.608990
0.606060
0.602150
0.597260
0.591400
0.584560
0.576740
0.568910
0.560120
0.552300
0.544480
0.537630
0.531770
0.524930
0.518080
0.509290
0.500490
0.492670
0.485830
0.478980
0.472140
0.465300
0.459430
0.454550
0.449660
0.445750
0.440860
0.435970
0.431090
0.427170
0.425220
0.422290
0.419350
0.416420
0.412510
0.406650
0.400780
0.393940
0.388070
0.383190
0.378300
0.374390
0.371460
0.370480
0.370480
0.370480
0.370480
0.370480
0.370480
0.371460
0.374390
0.384160
0.394920
0.405670
0.420330
0.434020
0.449660
0.467250
0.486800
0.505380
0.521990
0.537630
0.552300
0.565980
0.579670
0.590420
0.600200
0.608990
0.613880
0.617790
0.621700
0.625610
0.629520
0.632450
0.634410
0.635390
0.634410
0.632450
0.628540
0.622680
0.615840
0.608990
0.600200
0.590420
0.579670
0.568910
0.558160
0.548390
0.539590
0.530790
0.521990
0.514170
0.507330
0.500490
0.493650
0.485830
0.479960
0.474100
0.469210
0.464320
0.458460
0.452590
0.446730
0.439880
0.435000
0.431090
0.428150
0.424240
0.420330
0.416420
0.411530
0.407620
0.402740
0.397850
0.392960
0.387100
0.381230
0.376340
0.372430
0.367550
0.363640
0.361680
0.360700
0.360700
0.361680
0.364610
0.368520
0.375370
0.385140
0.398830
0.412510
0.428150
0.445750
0.465300
0.483870
0.501470
0.518080
0.533720
0.548390
0.562070
0.574780
0.584560
0.592380
0.598240
0.603130
0.607040
0.609970
0.610950
0.610950
0.609970
0.607040
0.602150
0.595310
0.587490
0.580650
0.573800
0.567940
0.561090
0.553270
0.543500
0.533720
0.522970
0.512220
0.499510
0.487780
0.475070
0.462370
0.452590
0.444770
0.437930
0.431090
0.425220
0.420330
0.416420
0.411530
0.407620
0.401760
0.395890
0.390030
0.383190
0.377320
0.373410
0.369500
0.365590
0.361680
0.356790
0.351910
0.345060
0.337240
0.328450
0.320630
0.313780
0.309870
0.306940
0.304990
0.302050
0.300100
0.298140
0.296190
0.294230
0.296190
0.298140
0.303030
0.309870
0.319650
0.330400
0.342130
0.356790
0.372430
0.390030
0.408600
0.426200
0.444770
0.461390
0.478980
0.492670
0.503420
0.511240
0.516130
0.520040
0.522970
0.524930
0.527860
0.530790
0.533720
0.535680
0.537630
0.536660
0.534700
0.530790
0.526880
0.521020
0.513200
0.504400
0.496580
0.487780
0.478010
0.468230
0.458460
0.449660
0.440860
0.433040
0.426200
0.421310
0.415440
0.409580
0.402740
0.396870
0.390030
0.384160
0.378300
0.372430
0.366570
0.359730
0.353860
0.348970
0.345060
0.341150
0.337240
0.333330
0.329420
0.324540
0.320630
0.315740
0.310850
0.305960
0.302050
0.299120
0.296190
0.292280
0.286410
0.280550
0.274680
0.269790
0.266860
0.263930
0.262950
0.263930
0.266860
0.273700
0.282500
0.293260
0.305960
0.321600
0.339200
0.357770
0.377320
0.395890
0.426200
0.461390
0.483870
0.500490
0.512220
0.521020
0.527860
0.534700
0.540570
0.545450
0.549360
0.553270
0.556210
0.558160
0.560120
0.561090
0.561090
0.559140
0.556210
0.550340
0.544480
0.540570
0.536660
0.531770
0.525900
0.519060
0.511240
0.503420
0.495600
0.490710
0.486800
0.481920
0.476050
0.469210
0.462370
0.455520
0.449660
0.444770
0.439880
0.436950
0.433040
0.430110
0.427170
0.422290
0.417400
0.411530
0.406650
0.401760
0.397850
0.392960
0.389050
0.385140
0.381230
0.377320
0.374390
0.372430
0.371460
0.369500
0.367550
0.365590
0.362660
0.360700
0.358750
0.356790
0.355820
0.356790
0.358750
0.363640
0.370480
0.379280
0.391010
0.403710
0.418380
0.433040
0.447700
0.462370
0.477030
0.490710
0.502440
0.512220
0.521020
0.528840
0.536660
0.544480
0.551320
0.558160
0.563050
0.568910
0.572830
0.575760
0.577710
0.577710
0.577710
0.576740
0.574780
0.571850
0.568910
0.565000
0.559140
0.553270
0.546430
0.538610
0.530790
0.523950
0.518080
0.512220
0.506350
0.500490
0.493650
0.487780
0.481920
0.476050
0.470190
0.465300
0.459430
0.453570
0.448680
0.443790
0.439880
0.435000
0.430110
0.426200
0.422290
0.417400
0.413490
0.408600
0.403710
0.397850
0.392960
0.389050
0.385140
0.381230
0.377320
0.374390
0.371460
0.367550
0.365590
0.363640
0.361680
0.360700
0.360700
0.361680
0.365590
0.371460
0.379280
0.390030
0.402740
0.422290
0.440860
0.454550
0.469210
0.484850
0.499510
0.514170
0.525900
0.535680
0.545450
0.556210
0.565980
0.575760
0.583580
0.591400
0.598240
0.604110
0.608020
0.611930
0.614860
0.615840
0.615840
0.615840
0.615840
0.615840
0.613880
0.610950
0.607040
0.602150
0.596290
0.588470
0.580650
0.572830
0.565000
0.556210
0.547410
0.538610
0.530790
0.523950
0.517110
0.510260
0.503420
0.497560
0.490710
0.485830
0.480940
0.475070
0.469210
0.463340
0.457480
0.450640
0.444770
0.437930
0.432060
0.427170
0.421310
0.416420
0.411530
0.407620
0.403710
0.398830
0.394920
0.391980
0.389050
0.387100
0.386120
0.383190
0.380250
0.378300
0.377320
0.378300
0.382210
0.387100
0.393940
0.403710
0.416420
0.430110
0.445750
0.462370
0.478980
0.495600
0.512220
0.525900
0.538610
0.551320
0.564030
0.574780
0.582600
0.589440
0.593350
0.597260
0.602150
0.608020
0.612900
0.615840
0.618770
0.620720
0.622680
0.623660
0.623660
0.623660
0.621700
0.618770
0.614860
0.609970
0.604110
0.597260
0.589440
0.581620
0.575760
0.571850
0.565000
0.557180
0.550340
0.542520
0.534700
0.525900
0.518080
0.511240
0.505380
0.501470
0.496580
0.489740
0.482890
0.476050
0.469210
0.463340
0.457480
0.451610
0.447700
0.444770
0.442820
0.441840
0.437930
0.434020
0.428150
0.422290
0.415440
0.410560
0.404690
0.400780
0.396870
0.393940
0.390030
0.388070
0.387100
0.386120
0.385140
0.386120
0.390030
0.395890
0.405670
0.416420
0.429130
0.442820
0.457480
0.475070
0.489740
0.501470
0.514170
0.529810
0.545450
0.560120
0.573800
0.586510
0.598240
0.608990
0.618770
0.627570
0.633430
0.638320
0.644180
0.650050
0.654940
0.657870
0.659820
0.660800
0.659820
0.658850
0.657870
0.656890
0.653960
0.651030
0.645160
0.639300
0.632450
0.624630
0.615840
0.608020
0.596290
0.584560
0.576740
0.568910
0.561090
0.554250
0.547410
0.540570
0.534700
0.528840
0.520040
0.511240
0.506350
0.500490
0.494620
0.488760
0.483870
0.479960
0.475070
0.469210
0.461390
0.455520
0.450640
0.445750
0.442820
0.440860
0.436950
0.432060
0.428150
0.425220
0.423260
0.420330
0.418380
0.416420
0.415440
0.415440
0.418380
0.424240
0.432060
0.443790
0.456500
0.468230
0.480940
0.495600
0.511240
0.526880
0.543500
0.558160
0.572830
0.585530
0.598240
0.608990
0.618770
0.627570
0.633430
0.638320
0.645160
0.651030
0.656890
0.662760
0.667640
0.671550
0.673510
0.675460
0.674490
0.673510
0.669600
0.665690
0.660800
0.655910
0.650050
0.643210
0.634410
0.625610
0.616810
0.608020
0.598240
0.589440
0.580650
0.573800
0.565980
0.559140
0.552300
0.545450
0.538610
0.531770
0.524930
0.518080
0.511240
0.505380
0.499510
0.495600
0.491690
0.486800
0.481920
0.477030
0.472140
0.467250
0.462370
0.457480
0.451610
0.446730
0.441840
0.436950
0.433040
0.431090
0.427170
0.424240
0.422290
0.421310
0.423260
0.427170
0.433040
0.439880
0.448680
0.459430
0.471160
0.482890
0.496580
0.513200
0.530790
0.547410
0.563050
0.578690
0.592380
0.605080
0.615840
0.626590
0.636360
0.645160
0.652000
0.659820
0.666670
0.671550
0.675460
0.677420
0.677420
0.677420
0.677420
0.676440
0.675460
0.674490
0.671550
0.667640
0.663730
0.657870
0.651030
0.642230
0.632450
0.622680
0.613880
0.605080
0.596290
0.588470
0.582600
0.575760
0.567940
0.561090
0.553270
0.546430
0.540570
0.534700
0.528840
0.523950
0.518080
0.512220
0.507330
0.503420
0.498530
0.493650
0.488760
0.483870
0.478980
0.474100
0.469210
0.456500
0.441840
0.433040
0.427170
0.423260
0.420330
0.416420
0.413490
0.410560
0.408600
0.406650
0.405670
0.406650
0.409580
0.414470
0.422290
0.431090
0.441840
0.455520
0.471160
0.487780
0.505380
0.521020
0.536660
0.551320
0.564030
0.575760
0.586510
0.593350
0.598240
0.605080
0.612900
0.620720
0.627570
0.633430
0.639300
0.643210
0.647120
0.649070
0.649070
0.647120
0.644180
0.640270
0.636360
0.631480
0.626590
0.620720
0.614860
0.608990
0.601170
0.593350
0.585530
0.577710
0.571850
0.565980
0.559140
0.552300
0.545450
0.538610
0.530790
0.523950
0.517110
0.509290
0.501470
0.493650
0.486800
0.480940
0.476050
0.473120
0.470190
0.468230
0.465300
0.461390
0.458460
0.455520
0.451610
0.446730
0.442820
0.438910
0.435000
0.431090
0.427170
0.423260
0.419350
0.416420
0.413490
0.410560
0.409580
0.409580
0.411530
0.415440
0.420330
0.428150
0.437930
0.449660
0.464320
0.479960
0.495600
0.511240
0.526880
0.541540
0.556210
0.568910
0.578690
0.586510
0.596290
0.606060
0.614860
0.623660
0.631480
0.637340
0.643210
0.647120
0.650050
0.652000
0.652980
0.652000
0.651030
0.649070
0.646140
0.642230
0.636360
0.630500
0.623660
0.616810
0.609970
0.603130
0.595310
0.587490
0.580650
0.572830
0.565000
0.557180
0.549360
0.542520
0.535680
0.528840
0.522970
0.517110
0.512220
0.507330
0.502440
0.497560
0.493650
0.487780
0.482890
0.477030
0.472140
0.469210
0.467250
0.464320
0.461390
0.458460
0.455520
0.451610
0.447700
0.442820
0.437930
0.433040
0.428150
0.424240
0.420330
0.418380
0.417400
0.417400
0.417400
0.418380
0.421310
0.425220
0.433040
0.443790
0.456500
0.471160
0.486800
0.504400
0.520040
0.535680
0.549360
0.561090
0.569890
0.578690
0.588470
0.597260
0.606060
0.613880
0.621700
0.627570
0.633430
0.638320
0.642230
0.645160
0.646140
0.647120
0.647120
0.646140
0.645160
0.642230
0.637340
0.631480
0.623660
0.615840
0.608020
0.601170
0.595310
0.588470
0.580650
0.572830
0.565000
0.557180
0.549360
0.540570
0.532750
0.525900
0.519060
0.514170
0.510260
0.506350
0.502440
0.498530
0.494620
0.489740
0.485830
0.480940
0.476050
0.471160
0.466280
0.461390
0.456500
0.452590
0.448680
0.443790
0.439880
0.435000
0.430110
0.425220
0.422290
0.419350
0.418380
0.417400
0.416420
0.417400
0.417400
0.418380
0.420330
0.423260
0.428150
0.435000
0.445750
0.457480
0.471160
0.485830
0.501470
0.516130
0.528840
0.540570
0.553270
0.559140
0.562070
0.568910
0.577710
0.586510
0.594330
0.601170
0.606060
0.608990
0.610950
0.611930
0.612900
0.613880
0.613880
0.613880
0.611930
0.609970
0.606060
0.601170
0.597260
0.591400
0.585530
0.579670
0.572830
0.564030
0.555230
0.546430
0.537630
0.527860
0.519060
0.509290
0.500490
0.492670
0.486800
0.480940
0.477030
0.474100
0.470190
0.466280
0.461390
0.456500
0.451610
0.445750
0.439880
0.434020
0.428150
0.423260
0.418380
0.414470
0.409580
0.404690
0.400780
0.397850
0.393940
0.390030
0.385140
0.381230
0.378300
0.375370
0.374390
0.373410
0.371460
0.370480
0.370480
0.371460
0.373410
0.378300
0.387100
0.398830
0.414470
0.432060
0.451610
0.467250
0.481920
0.496580
0.510260
0.523950
0.536660
0.548390
0.559140
0.567940
0.576740
0.584560
0.591400
0.596290
0.599220
0.603130
0.607040
0.609970
0.610950
0.610950
0.609970
0.607040
0.603130
0.599220
0.593350
0.587490
0.581620
0.574780
0.567940
0.559140
0.550340
0.540570
0.531770
0.523950
0.517110
0.509290
0.501470
0.493650
0.487780
0.480940
0.475070
0.468230
0.461390
0.456500
0.451610
0.447700
0.442820
0.438910
0.435000
0.431090
0.427170
0.424240
0.422290
0.418380
0.415440
0.411530
0.408600
0.403710
0.398830
0.393940
0.389050
0.384160
0.379280
0.377320
0.375370
0.374390
0.374390
0.373410
0.373410
0.373410
0.374390
0.375370
0.379280
0.385140
0.392960
0.405670
0.417400
0.430110
0.446730
0.465300
0.483870
0.502440
0.519060
0.533720
0.546430
0.558160
0.567940
0.575760
0.581620
0.585530
0.589440
0.593350
0.597260
0.601170
0.604110
0.606060
0.607040
0.606060
0.603130
0.600200
0.597260
0.593350
0.589440
0.583580
0.575760
0.566960
0.557180
0.548390
0.539590
0.530790
0.522970
0.517110
0.511240
0.505380
0.500490
0.495600
0.489740
0.483870
0.477030
0.470190
0.462370
0.455520
0.448680
0.441840
0.436950
0.434020
0.431090
0.428150
0.424240
0.421310
0.417400
0.414470
0.410560
0.405670
0.400780
0.395890
0.391010
0.387100
0.383190
0.380250
0.377320
0.373410
0.369500
0.366570
0.362660
0.360700
0.359730
0.360700
0.363640
0.368520
0.375370
0.382210
0.391980
0.403710
0.417400
0.433040
0.449660
0.466280
0.481920
0.496580
0.509290
0.522970
0.534700
0.544480
0.551320
0.558160
0.565000
0.571850
0.579670
0.585530
0.590420
0.594330
0.597260
0.597260
0.595310
0.592380
0.587490
0.581620
0.574780
0.567940
0.560120
0.551320
0.542520
0.533720
0.524930
0.519060
0.513200
0.504400
0.496580
0.488760
0.479960
0.470190
0.462370
0.453570
0.446730
0.439880
0.433040
0.427170
0.421310
0.415440
0.410560
0.405670
0.400780
0.394920
0.390030
0.384160
0.379280
0.375370
0.371460
0.367550
0.362660
0.355820
0.348970
0.343110
0.337240
0.332360
0.326490
0.321600
0.317690
0.313780
0.310850
0.307920
0.305960
0.303030
0.302050
0.302050
0.304010
0.307920
0.314760
0.323560
0.335290
0.349950
0.365590
0.383190
0.400780
0.418380
0.435000
0.450640
0.465300
0.477030
0.487780
0.496580
0.504400
0.510260
0.514170
0.517110
0.519060
0.521020
0.522970
0.524930
0.524930
0.523950
0.522970
0.521020
0.518080
0.514170
0.508310
0.501470
0.494620
0.486800
0.478980
0.470190
0.461390
0.453570
0.446730
0.438910
0.432060
0.425220
0.419350
0.413490
0.406650
0.399800
0.391980
0.385140
0.377320
0.370480
0.364610
0.357770
0.350930
0.345060
0.339200
0.334310
0.330400
0.325510
0.322580
0.319650
0.316720
0.312810
0.310850
0.309870
0.307920
0.304990
0.301080
0.296190
0.291300
0.285430
0.279570
0.273700
0.268820
0.264910
0.263930
0.262950
0.261970
0.262950
0.266860
0.270770
0.277610
0.286410
0.298140
0.311830
0.327470
0.345060
0.363640
0.379280
0.394920
0.410560
0.427170
0.440860
0.454550
0.466280
0.478980
0.489740
0.497560
0.504400
0.511240
0.516130
0.520040
0.523950
0.526880
0.528840
0.530790
0.530790
0.529810
0.526880
0.521990
0.514170
0.506350
0.499510
0.491690
0.482890
0.473120
0.463340
0.453570
0.443790
0.435970
0.427170
0.419350
0.412510
0.405670
0.399800
0.394920
0.389050
0.383190
0.376340
0.370480
0.364610
0.358750
0.352880
0.346040
0.340180
0.333330
0.327470
0.322580
0.319650
0.316720
0.311830
0.307920
0.304010
0.299120
0.296190
0.293260
0.289350
0.285430
0.281520
0.276640
0.272730
0.268820
0.264910
0.260020
0.256110
0.254150
0.255130
0.257090
0.262950
0.271750
0.284460
0.300100
0.315740
0.331380
0.348970
0.367550
0.385140
0.402740
0.419350
0.435970
0.450640
0.464320
0.478010
0.489740
0.500490
0.509290
0.517110
0.525900
0.535680
0.544480
0.551320
0.557180
0.559140
0.560120
0.559140
0.556210
0.551320
0.546430
0.541540
0.536660
0.530790
0.524930
0.519060
0.512220
0.504400
0.496580
0.488760
0.478980
0.468230
0.458460
0.448680
0.440860
0.433040
0.425220
0.417400
0.410560
0.403710
0.397850
0.391980
0.386120
0.382210
0.377320
0.372430
0.368520
0.362660
0.356790
0.374390
0.404690
0.416420
0.419350
0.417400
0.414470
0.409580
0.405670
0.401760
0.399800
0.398830
0.397850
0.395890
0.393940
0.391980
0.391010
0.389050
0.388070
0.389050
0.393940
0.400780
0.410560
0.421310
0.436950
0.453570
0.472140
0.491690
0.510260
0.528840
0.547410
0.565000
0.580650
0.595310
0.608020
0.619750
0.628540
0.640270
0.647120
0.654940
0.663730
0.668620
0.671550
0.674490
0.675460
0.675460
0.675460
0.675460
0.674490
0.672530
0.669600
0.664710
0.658850
0.652000
0.644180
0.635390
0.625610
0.614860
0.604110
0.594330
0.587490
0.579670
0.572830
0.565000
0.558160
0.551320
0.543500
0.536660
0.529810
0.521990
0.514170
0.507330
0.501470
0.494620
0.488760
0.481920
0.476050
0.471160
0.467250
0.463340
0.459430
0.455520
0.449660
0.444770
0.440860
0.436950
0.432060
0.427170
0.423260
0.419350
0.416420
0.414470
0.412510
0.410560
0.411530
0.413490
0.417400
0.423260
0.433040
0.446730
0.471160
0.489740
0.507330
0.531770
0.546430
0.562070
0.576740
0.591400
0.604110
0.614860
0.625610
0.636360
0.646140
0.653960
0.661780
0.668620
0.675460
0.682310
0.687190
0.691100
0.694040
0.695010
0.695990
0.695990
0.694040
0.691100
0.685240
0.679370
0.671550
0.663730
0.653960
0.645160
0.637340
0.629520
0.620720
0.612900
0.604110
0.595310
0.586510
0.577710
0.567940
0.558160
0.548390
0.539590
0.531770
0.525900
0.521020
0.516130
0.511240
0.506350
0.501470
0.496580
0.490710
0.485830
0.479960
0.475070
0.471160
0.467250
0.464320
0.459430
0.454550
0.449660
0.445750
0.441840
0.437930
0.435000
0.430110
0.425220
0.421310
0.417400
0.415440
0.415440
0.417400
0.420330
0.426200
0.435970
0.448680
0.462370
0.478010
0.495600
0.513200
0.530790
0.547410
0.562070
0.578690
0.594330
0.610950
0.626590
0.639300
0.652000
0.663730
0.673510
0.682310
0.690130
0.695990
0.699900
0.701860
0.703810
0.705770
0.707720
0.709680
0.710650
0.709680
0.707720
0.703810
0.697950
0.691100
0.684260
0.676440
0.667640
0.657870
0.648090
0.638320
0.629520
0.619750
0.610950
0.602150
0.593350
0.584560
0.575760
0.568910
0.561090
0.554250
0.547410
0.540570
0.533720
0.527860
0.521990
0.516130
0.511240
0.505380
0.500490
0.495600
0.491690
0.486800
0.481920
0.477030
0.472140
0.467250
0.462370
0.456500
0.451610
0.447700
0.443790
0.439880
0.437930
0.435970
0.434020
0.433040
0.433040
0.434020
0.436950
0.442820
0.452590
0.465300
0.470190
0.471160
0.478980
0.490710
0.504400
0.520040
0.533720
0.548390
0.562070
0.574780
0.587490
0.598240
0.608990
0.617790
0.624630
0.629520
0.631480
0.632450
0.632450
0.631480
0.631480
0.632450
0.633430
0.635390
0.636360
0.635390
0.632450
0.628540
0.623660
0.617790
0.609970
0.601170
0.592380
0.582600
0.572830
0.564030
0.555230
0.547410
0.539590
0.532750
0.527860
0.522970
0.519060
0.515150
0.510260
0.505380
0.499510
0.493650
0.487780
0.482890
0.478010
0.473120
0.469210
0.465300
0.459430
0.453570
0.448680
0.443790
0.439880
0.436950
0.435970
0.435000
0.433040
0.430110
0.427170
0.424240
0.421310
0.417400
0.414470
0.410560
0.408600
0.408600
0.410560
0.416420
0.424240
0.435000
0.448680
0.462370
0.475070
0.491690
0.508310
0.523950
0.538610
0.552300
0.565980
0.577710
0.588470
0.598240
0.610950
0.617790
0.622680
0.630500
0.634410
0.638320
0.641250
0.644180
0.645160
0.647120
0.648090
0.649070
0.648090
0.645160
0.641250
0.635390
0.629520
0.622680
0.614860
0.606060
0.598240
0.590420
0.582600
0.574780
0.567940
0.562070
0.556210
0.549360
0.541540
0.534700
0.527860
0.521990
0.515150
0.509290
0.503420
0.498530
0.494620
0.489740
0.485830
0.483870
0.479960
0.476050
0.471160
0.466280
0.462370
0.457480
0.452590
0.447700
0.442820
0.437930
0.435000
0.433040
0.430110
0.427170
0.424240
0.421310
0.419350
0.419350
0.419350
0.421310
0.425220
0.431090
0.438910
0.447700
0.457480
0.469210
0.482890
0.499510
0.516130
0.531770
0.547410
0.561090
0.573800
0.584560
0.595310
0.606060
0.613880
0.620720
0.629520
0.634410
0.639300
0.643210
0.646140
0.648090
0.650050
0.651030
0.651030
0.649070
0.647120
0.643210
0.637340
0.631480
0.624630
0.618770
0.611930
0.604110
0.595310
0.586510
0.578690
0.570870
0.564030
0.556210
0.548390
0.541540
0.534700
0.528840
0.523950
0.520040
0.515150
0.510260
0.505380
0.500490
0.496580
0.492670
0.487780
0.484850
0.480940
0.477030
0.472140
0.468230
0.463340
0.458460
0.454550
0.449660
0.445750
0.443790
0.440860
0.436950
0.434020
0.430110
0.426200
0.423260
0.419350
0.417400
0.416420
0.417400
0.421310
0.427170
0.434020
0.442820
0.455520
0.469210
0.483870
0.500490
0.517110
0.531770
0.547410
0.561090
0.574780
0.584560
0.593350
0.603130
0.611930
0.621700
0.628540
0.635390
0.640270
0.645160
0.648090
0.651030
0.652980
0.654940
0.654940
0.652980
0.650050
0.646140
0.637340
0.623660
0.613880
0.605080
0.597260
0.589440
0.581620
0.573800
0.566960
0.560120
0.554250
0.548390
0.542520
0.535680
0.527860
0.519060
0.511240
0.503420
0.496580
0.490710
0.484850
0.480940
0.477030
0.473120
0.468230
0.463340
0.457480
0.450640
0.444770
0.437930
0.431090
0.425220
0.419350
0.414470
0.410560
0.406650
0.401760
0.396870
0.394920
0.392960
0.390030
0.387100
0.385140
0.383190
0.381230
0.380250
0.381230
0.384160
0.389050
0.395890
0.406650
0.419350
0.434020
0.450640
0.468230
0.485830
0.502440
0.519060
0.532750
0.544480
0.557180
0.567940
0.578690
0.589440
0.599220
0.606060
0.610950
0.613880
0.615840
0.618770
0.619750
