0.595310
0.590420
0.583580
0.577710
0.572830
0.568910
0.565980
0.562070
0.557180
0.552300
0.546430
0.539590
0.530790
0.521020
0.512220
0.503420
0.494620
0.486800
0.478980
0.473120
0.466280
0.461390
0.456500
0.452590
0.448680
0.446730
0.444770
0.442820
0.440860
0.438910
0.436950
0.435970
0.434020
0.431090
0.428150
0.426200
0.424240
0.421310
0.418380
0.415440
0.413490
0.410560
0.408600
0.406650
0.405670
0.403710
0.400780
0.397850
0.394920
0.392960
0.390030
0.389050
0.388070
0.388070
0.388070
0.387100
0.386120
0.385140
0.383190
0.382210
0.380250
0.378300
0.377320
0.377320
0.379280
0.381230
0.387100
0.397850
0.410560
0.426200
0.444770
0.467250
0.490710
0.513200
0.532750
0.549360
0.561090
0.568910
0.573800
0.575760
0.575760
0.573800
0.570870
0.566960
0.562070
0.556210
0.550340
0.544480
0.539590
0.533720
0.527860
0.521990
0.515150
0.509290
0.504400
0.499510
0.493650
0.486800
0.480940
0.475070
0.469210
0.464320
0.460410
0.456500
0.451610
0.447700
0.444770
0.441840
0.438910
0.436950
0.435000
0.433040
0.431090
0.429130
0.427170
0.425220
0.422290
0.420330
0.418380
0.416420
0.414470
0.410560
0.407620
0.404690
0.401760
0.398830
0.395890
0.392960
0.390030
0.388070
0.387100
0.385140
0.383190
0.382210
0.380250
0.378300
0.377320
0.377320
0.377320
0.377320
0.377320
0.377320
0.377320
0.377320
0.377320
0.377320
0.379280
0.383190
0.391010
0.404690
0.421310
0.442820
0.466280
0.490710
0.516130
0.535680
0.551320
0.565000
0.575760
0.582600
0.585530
0.584560
0.582600
0.580650
0.576740
0.573800
0.569890
0.567940
0.565000
0.563050
0.560120
0.556210
0.551320
0.545450
0.539590
0.533720
0.527860
0.521990
0.516130
0.510260
0.505380
0.500490
0.494620
0.489740
0.484850
0.480940
0.477030
0.475070
0.473120
0.469210
0.465300
0.461390
0.457480
0.454550
0.450640
0.447700
0.443790
0.441840
0.438910
0.436950
0.435000
0.433040
0.431090
0.429130
0.427170
0.426200
0.425220
0.424240
0.423260
0.422290
0.420330
0.419350
0.417400
0.416420
0.414470
0.414470
0.413490
0.413490
0.414470
0.414470
0.414470
0.415440
0.415440
0.415440
0.415440
0.414470
0.413490
0.413490
0.415440
0.418380
0.424240
0.432060
0.446730
0.467250
0.491690
0.518080
0.546430
0.571850
0.595310
0.613880
0.629520
0.640270
0.646140
0.648090
0.648090
0.646140
0.644180
0.642230
0.641250
0.641250
0.640270
0.638320
0.634410
0.630500
0.626590
0.622680
0.617790
0.612900
0.605080
0.597260
0.588470
0.579670
0.568910
0.558160
0.548390
0.539590
0.530790
0.522970
0.517110
0.513200
0.509290
0.505380
0.502440
0.501470
0.499510
0.497560
0.494620
0.490710
0.485830
0.481920
0.478010
0.474100
0.470190
0.466280
0.461390
0.457480
0.452590
0.446730
0.442820
0.437930
0.435000
0.432060
0.430110
0.428150
0.426200
0.424240
0.422290
0.420330
0.419350
0.418380
0.418380
0.419350
0.420330
0.419350
0.419350
0.418380
0.417400
0.415440
0.413490
0.412510
0.413490
0.415440
0.421310
0.431090
0.445750
0.464320
0.488760
0.515150
0.538610
0.560120
0.581620
0.601170
0.617790
0.630500
0.637340
0.641250
0.643210
0.643210
0.643210
0.643210
0.642230
0.640270
0.638320
0.635390
0.631480
0.626590
0.622680
0.617790
0.610950
0.603130
0.594330
0.584560
0.574780
0.565980
0.555230
0.545450
0.536660
0.528840
0.521990
0.516130
0.511240
0.506350
0.502440
0.497560
0.492670
0.488760
0.485830
0.480940
0.477030
0.473120
0.468230
0.464320
0.459430
0.455520
0.450640
0.446730
0.443790
0.441840
0.439880
0.437930
0.435970
0.434020
0.432060
0.429130
0.426200
0.423260
0.420330
0.418380
0.416420
0.414470
0.412510
0.411530
0.410560
0.409580
0.410560
0.411530
0.412510
0.412510
0.412510
0.410560
0.408600
0.406650
0.405670
0.406650
0.409580
0.414470
0.423260
0.437930
0.455520
0.478010
0.502440
0.528840
0.552300
0.573800
0.590420
0.601170
0.608990
0.613880
0.615840
0.616810
0.616810
0.613880
0.610950
0.606060
0.601170
0.596290
0.591400
0.585530
0.580650
0.576740
0.572830
0.566960
0.561090
0.553270
0.545450
0.535680
0.524930
0.516130
0.506350
0.497560
0.489740
0.483870
0.478010
0.474100
0.472140
0.470190
0.468230
0.464320
0.461390
0.456500
0.452590
0.448680
0.446730
0.444770
0.442820
0.440860
0.436950
0.432060
0.427170
0.423260
0.420330
0.417400
0.414470
0.411530
0.409580
0.407620
0.406650
0.404690
0.402740
0.400780
0.397850
0.395890
0.393940
0.391980
0.389050
0.387100
0.385140
0.384160
0.384160
0.384160
0.383190
0.382210
0.380250
0.378300
0.376340
0.375370
0.375370
0.375370
0.378300
0.385140
0.394920
0.405670
0.422290
0.441840
0.464320
0.487780
0.509290
0.529810
0.546430
0.558160
0.565980
0.570870
0.573800
0.572830
0.570870
0.566960
0.562070
0.557180
0.551320
0.545450
0.538610
0.532750
0.526880
0.521020
0.515150
0.509290
0.504400
0.500490
0.495600
0.489740
0.482890
0.477030
0.471160
0.466280
0.461390
0.457480
0.453570
0.449660
0.446730
0.442820
0.439880
0.436950
0.435000
0.433040
0.430110
0.428150
0.426200
0.424240
0.422290
0.420330
0.419350
0.417400
0.415440
0.412510
0.409580
0.406650
0.404690
0.402740
0.399800
0.396870
0.392960
0.390030
0.386120
0.384160
0.381230
0.378300
0.376340
0.376340
0.376340
0.377320
0.378300
0.380250
0.382210
0.384160
0.385140
0.386120
0.386120
0.385140
0.385140
0.386120
0.389050
0.396870
0.408600
0.426200
0.445750
0.469210
0.493650
0.514170
0.532750
0.550340
0.565000
0.575760
0.582600
0.585530
0.585530
0.584560
0.581620
0.577710
0.574780
0.572830
0.569890
0.566960
0.565000
0.563050
0.561090
0.559140
0.555230
0.550340
0.543500
0.535680
0.525900
0.516130
0.508310
0.502440
0.496580
0.490710
0.486800
0.481920
0.478010
0.474100
0.469210
0.465300
0.462370
0.458460
0.456500
0.454550
0.451610
0.448680
0.444770
0.441840
0.438910
0.436950
0.435000
0.432060
0.431090
0.430110
0.430110
0.430110
0.430110
0.430110
0.429130
0.429130
0.428150
0.426200
0.425220
0.423260
0.422290
0.420330
0.418380
0.416420
0.415440
0.413490
0.412510
0.411530
0.411530
0.412510
0.414470
0.415440
0.415440
0.414470
0.414470
0.414470
0.415440
0.418380
0.425220
0.435970
0.451610
0.472140
0.495600
0.520040
0.544480
0.567940
0.587490
0.604110
0.613880
0.620720
0.624630
0.626590
0.626590
0.624630
0.622680
0.620720
0.617790
0.615840
0.611930
0.608020
0.604110
0.600200
0.596290
0.592380
0.586510
0.579670
0.571850
0.562070
0.552300
0.544480
0.535680
0.527860
0.520040
0.513200
0.507330
0.502440
0.498530
0.493650
0.489740
0.485830
0.481920
0.478010
0.475070
0.472140
0.469210
0.466280
0.463340
0.460410
0.456500
0.453570
0.449660
0.445750
0.441840
0.438910
0.436950
0.434020
0.431090
0.427170
0.425220
0.424240
0.422290
0.420330
0.418380
0.416420
0.414470
0.412510
0.410560
0.408600
0.406650
0.404690
0.403710
0.403710
0.403710
0.403710
0.402740
0.401760
0.400780
0.401760
0.403710
0.407620
0.415440
0.428150
0.443790
0.460410
0.478980
0.500490
0.522970
0.547410
0.567940
0.580650
0.590420
0.598240
0.603130
0.606060
0.607040
0.608020
0.606060
0.603130
0.600200
0.596290
0.592380
0.588470
0.584560
0.579670
0.575760
0.571850
0.566960
0.562070
0.556210
0.550340
0.542520
0.533720
0.523950
0.514170
0.505380
0.498530
0.493650
0.489740
0.485830
0.480940
0.476050
0.474100
0.471160
0.467250
0.463340
0.459430
0.454550
0.450640
0.447700
0.444770
0.441840
0.438910
0.436950
0.435000
0.433040
0.430110
0.428150
0.426200
0.424240
0.421310
0.420330
0.418380
0.415440
0.414470
0.412510
0.410560
0.408600
0.407620
0.407620
0.408600
0.410560
0.410560
0.410560
0.410560
0.408600
0.407620
0.405670
0.403710
0.402740
0.400780
0.400780
0.401760
0.405670
0.415440
0.428150
0.445750
0.467250
0.488760
0.511240
0.530790
0.547410
0.562070
0.574780
0.583580
0.589440
0.592380
0.592380
0.590420
0.587490
0.583580
0.577710
0.572830
0.567940
0.564030
0.561090
0.557180
0.553270
0.548390
0.543500
0.537630
0.531770
0.523950
0.515150
0.506350
0.499510
0.492670
0.484850
0.478010
0.471160
0.465300
0.460410
0.456500
0.452590
0.448680
0.445750
0.442820
0.439880
0.437930
0.436950
0.435000
0.433040
0.431090
0.429130
0.427170
0.425220
0.422290
0.418380
0.415440
0.411530
0.407620
0.404690
0.402740
0.399800
0.397850
0.395890
0.393940
0.391980
0.390030
0.388070
0.386120
0.384160
0.382210
0.381230
0.381230
0.381230
0.380250
0.379280
0.377320
0.376340
0.375370
0.375370
0.375370
0.375370
0.377320
0.380250
0.385140
0.394920
0.408600
0.425220
0.444770
0.465300
0.485830
0.505380
0.522970
0.537630
0.550340
0.558160
0.562070
0.564030
0.564030
0.562070
0.560120
0.557180
0.553270
0.548390
0.543500
0.537630
0.531770
0.525900
0.520040
0.513200
0.506350
0.499510
0.491690
0.483870
0.477030
0.471160
0.465300
0.459430
0.454550
0.450640
0.445750
0.442820
0.439880
0.436950
0.434020
0.432060
0.429130
0.427170
0.425220
0.423260
0.421310
0.419350
0.417400
0.416420
0.414470
0.413490
0.411530
0.409580
0.406650
0.404690
0.400780
0.396870
0.392960
0.389050
0.386120
0.384160
0.382210
0.381230
0.379280
0.377320
0.376340
0.375370
0.375370
0.375370
0.375370
0.375370
0.375370
0.375370
0.375370
0.375370
0.375370
0.375370
0.375370
0.375370
0.376340
0.379280
0.386120
0.398830
0.415440
0.436950
0.460410
0.481920
0.499510
0.520040
0.537630
0.552300
0.563050
0.569890
0.573800
0.573800
0.572830
0.569890
0.566960
0.563050
0.563050
0.565000
0.565000
0.562070
0.559140
0.554250
0.548390
0.542520
0.536660
0.530790
0.523950
0.517110
0.510260
0.504400
0.497560
0.490710
0.485830
0.480940
0.477030
0.472140
0.468230
0.463340
0.459430
0.455520
0.451610
0.448680
0.444770
0.442820
0.440860
0.439880
0.438910
0.436950
0.435000
0.433040
0.431090
0.429130
0.427170
0.426200
0.424240
0.422290
0.420330
0.418380
0.417400
0.416420
0.415440
0.414470
0.413490
0.411530
0.409580
0.408600
0.406650
0.405670
0.404690
0.404690
0.405670
0.404690
0.404690
0.402740
0.400780
0.399800
0.399800
0.400780
0.402740
0.406650
0.415440
0.429130
0.447700
0.470190
0.494620
0.521020
0.545450
0.567940
0.586510
0.601170
0.610950
0.616810
0.620720
0.622680
0.622680
0.620720
0.619750
0.616810
0.614860
0.611930
0.609970
0.607040
0.604110
0.601170
0.597260
0.592380
0.586510
0.579670
0.572830
0.566960
0.559140
0.550340
0.540570
0.530790
0.521990
0.514170
0.508310
0.502440
0.498530
0.493650
0.490710
0.487780
0.483870
0.479960
0.476050
0.472140
0.468230
0.464320
0.460410
0.457480
0.454550
0.450640
0.446730
0.442820
0.439880
0.436950
0.434020
0.431090
0.429130
0.427170
0.425220
0.424240
0.422290
0.420330
0.418380
0.416420
0.414470
0.411530
0.409580
0.408600
0.409580
0.410560
0.412510
0.413490
0.414470
0.413490
0.411530
0.409580
0.408600
0.407620
0.409580
0.415440
0.426200
0.442820
0.463340
0.483870
0.504400
0.527860
0.550340
0.571850
0.588470
0.601170
0.609970
0.614860
0.617790
0.619750
0.618770
0.616810
0.613880
0.611930
0.608990
0.605080
0.602150
0.599220
0.596290
0.592380
0.588470
0.582600
0.575760
0.567940
0.560120
0.551320
0.542520
0.531770
0.521990
0.512220
0.503420
0.496580
0.490710
0.485830
0.480940
0.477030
0.473120
0.469210
0.466280
0.464320
0.460410
0.456500
0.452590
0.448680
0.444770
0.442820
0.439880
0.437930
0.435000
0.434020
0.434020
0.432060
0.431090
0.429130
0.427170
0.424240
0.422290
0.420330
0.418380
0.416420
0.414470
0.412510
0.411530
0.409580
0.408600
0.406650
0.406650
0.406650
0.407620
0.408600
0.408600
0.406650
0.405670
0.403710
0.401760
0.400780
0.401760
0.405670
0.413490
0.426200
0.443790
0.466280
0.492670
0.518080
0.541540
0.561090
0.575760
0.586510
0.595310
0.601170
0.604110
0.604110
0.601170
0.597260
0.592380
0.587490
0.582600
0.578690
0.574780
0.570870
0.566960
0.561090
0.555230
0.549360
0.543500
0.536660
0.527860
0.517110
0.506350
0.496580
0.486800
0.478980
0.471160
0.463340
0.456500
0.450640
0.445750
0.439880
0.435000
0.431090
0.426200
0.423260
0.420330
0.418380
0.417400
0.416420
0.414470
0.412510
0.410560
0.406650
0.402740
0.397850
0.393940
0.391010
0.388070
0.385140
0.384160
0.381230
0.378300
0.374390
0.371460
0.367550
0.364610
0.362660
0.359730
0.357770
0.355820
0.355820
0.355820
0.355820
0.353860
0.351910
0.350930
0.349950
0.349950
0.348970
0.348970
0.348970
0.348970
0.349950
0.351910
0.356790
0.365590
0.381230
0.400780
0.425220
0.451610
0.478010
0.502440
0.522970
0.540570
0.553270
0.562070
0.565980
0.566960
0.565980
0.564030
0.561090
0.556210
0.550340
0.544480
0.538610
0.533720
0.527860
0.521990
0.515150
0.509290
0.503420
0.496580
0.487780
0.478980
0.470190
0.461390
0.452590
0.445750
0.438910
0.432060
0.427170
0.424240
0.422290
0.420330
0.418380
0.415440
0.413490
0.411530
0.408600
0.406650
0.403710
0.401760
0.399800
0.396870
0.394920
0.393940
0.391980
0.390030
0.387100
0.383190
0.379280
0.376340
0.373410
0.370480
0.367550
0.363640
0.361680
0.359730
0.356790
0.354840
0.352880
0.350930
0.349950
0.349950
0.348970
0.349950
0.350930
0.352880
0.353860
0.353860
0.353860
0.352880
0.352880
0.353860
0.356790
0.362660
0.373410
0.389050
0.407620
0.429130
0.454550
0.477030
0.497560
0.520040
0.539590
0.555230
0.566960
0.573800
0.576740
0.578690
0.578690
0.575760
0.571850
0.568910
0.565980
0.563050
0.559140
0.554250
0.548390
0.541540
0.535680
0.529810
0.523950
0.518080
0.511240
0.504400
0.498530
0.493650
0.488760
0.482890
0.477030
0.470190
0.463340
0.457480
0.452590
0.447700
0.443790
0.440860
0.437930
0.435000
0.431090
0.427170
0.424240
0.421310
0.418380
0.415440
0.413490
0.411530
0.408600
0.406650
0.403710
0.402740
0.401760
0.400780
0.399800
0.399800
0.398830
0.396870
0.394920
0.391980
0.390030
0.388070
0.387100
0.386120
0.386120
0.386120
0.385140
0.384160
0.384160
0.383190
0.382210
0.380250
0.379280
0.377320
0.376340
0.376340
0.377320
0.380250
0.388070
0.399800
0.417400
0.438910
0.465300
0.491690
0.518080
0.542520
0.562070
0.578690
0.590420
0.598240
0.604110
0.608990
0.610950
0.611930
0.612900
0.611930
0.609970
0.607040
0.603130
0.598240
0.594330
0.589440
0.584560
0.580650
0.574780
0.568910
0.562070
0.555230
0.548390
0.539590
0.530790
0.521020
0.511240
0.503420
0.496580
0.495600
0.496580
0.495600
0.492670
0.488760
0.484850
0.480940
0.476050
0.472140
0.469210
0.466280
0.464320
0.461390
0.457480
0.453570
0.449660
0.445750
0.442820
0.438910
0.434020
0.430110
0.426200
0.423260
0.421310
0.419350
0.417400
0.415440
0.413490
0.411530
0.408600
0.406650
0.405670
0.406650
0.407620
0.408600
0.407620
0.406650
0.405670
0.403710
0.401760
0.400780
0.399800
0.400780
0.403710
0.407620
0.416420
0.430110
0.448680
0.466280
0.486800
0.510260
0.536660
0.561090
0.582600
0.599220
0.610950
0.619750
0.624630
0.626590
0.625610
0.622680
0.619750
0.615840
0.610950
0.607040
0.604110
0.601170
0.599220
0.596290
0.593350
0.588470
0.582600
0.575760
0.566960
0.559140
0.549360
0.538610
0.527860
0.518080
0.508310
0.499510
0.492670
0.485830
0.479960
0.475070
0.470190
0.466280
0.462370
0.458460
0.454550
0.450640
0.447700
0.444770
0.442820
0.441840
0.439880
0.437930
0.435000
0.434020
0.432060
0.430110
0.427170
0.425220
0.422290
0.420330
0.418380
0.415440
0.413490
0.411530
0.409580
0.406650
0.404690
0.403710
0.401760
0.400780
0.400780
0.400780
0.400780
0.398830
0.397850
0.395890
0.392960
0.391010
0.390030
0.389050
0.390030
0.392960
0.401760
0.415440
0.435000
0.457480
0.481920
0.506350
0.529810
0.551320
0.567940
0.579670
0.586510
0.591400
0.593350
0.592380
0.589440
0.586510
0.582600
0.579670
0.577710
0.574780
0.572830
0.569890
0.565980
0.560120
0.554250
0.548390
0.541540
0.534700
0.527860
0.521990
0.514170
0.506350
0.499510
0.493650
0.487780
0.482890
0.478010
0.473120
0.468230
0.463340
0.458460
0.454550
0.449660
0.445750
0.442820
0.439880
0.436950
0.435000
0.432060
0.429130
0.427170
0.424240
0.422290
0.420330
0.418380
0.415440
0.413490
0.410560
0.406650
0.403710
0.400780
0.397850
0.394920
0.391980
0.389050
0.387100
0.385140
0.384160
0.382210
0.382210
0.381230
0.380250
0.380250
0.380250
0.379280
0.377320
0.375370
0.374390
0.373410
0.373410
0.375370
0.382210
0.392960
0.405670
0.421310
0.442820
0.466280
0.490710
0.515150
0.537630
0.556210
0.569890
0.578690
0.582600
0.582600
0.580650
0.576740
0.572830
0.568910
0.565000
0.562070
0.560120
0.556210
0.551320
0.545450
0.538610
0.531770
0.522970
0.517110
0.511240
0.503420
0.496580
0.488760
0.481920
0.474100
0.469210
0.463340
0.459430
0.454550
0.449660
0.445750
0.443790
0.441840
0.439880
0.437930
0.435000
0.433040
0.430110
0.426200
0.422290
0.418380
0.414470
0.411530
0.409580
0.407620
0.405670
0.403710
0.401760
0.399800
0.396870
0.394920
0.393940
0.392960
0.392960
0.391980
0.391980
0.391980
0.391980
0.391980
0.390030
0.388070
0.386120
0.385140
0.384160
0.384160
0.383190
0.383190
0.383190
0.384160
0.385140
0.388070
0.393940
0.403710
0.418380
0.436950
0.459430
0.483870
0.508310
0.531770
0.553270
0.569890
0.581620
0.589440
0.594330
0.596290
0.596290
0.594330
0.591400
0.587490
0.583580
0.579670
0.576740
0.574780
0.571850
0.567940
0.564030
0.558160
0.552300
0.545450
0.538610
0.530790
0.521990
0.515150
0.507330
0.500490
0.494620
0.489740
0.485830
0.481920
0.478010
0.474100
0.471160
0.469210
0.466280
0.462370
0.458460
0.454550
0.449660
0.446730
0.444770
0.442820
0.440860
0.437930
0.435970
0.434020
0.432060
0.430110
0.428150
0.427170
0.425220
0.423260
0.421310
0.420330
0.418380
0.417400
0.416420
0.414470
0.413490
0.412510
0.412510
0.411530
0.411530
0.412510
0.412510
0.412510
0.411530
0.409580
0.407620
0.406650
0.406650
0.408600
0.416420
0.428150
0.445750
0.468230
0.494620
0.517110
0.539590
0.563050
0.583580
0.602150
0.615840
0.625610
0.632450
0.636360
0.638320
0.639300
0.638320
0.636360
0.634410
0.632450
0.630500
0.628540
0.627570
0.625610
0.622680
0.619750
0.614860
0.608990
0.602150
0.594330
0.586510
0.577710
0.568910
0.558160
0.548390
0.537630
0.526880
0.516130
0.508310
0.501470
0.496580
0.492670
0.490710
0.488760
0.485830
0.483870
0.480940
0.477030
0.473120
0.469210
0.465300
0.460410
0.455520
0.450640
0.446730
0.443790
0.440860
0.436950
0.433040
0.430110
0.428150
0.425220
0.424240
0.424240
0.424240
0.424240
0.422290
0.421310
0.421310
0.420330
0.420330
0.420330
0.421310
0.420330
0.419350
0.418380
0.416420
0.415440
0.414470
0.416420
0.420330
0.428150
0.440860
0.458460
0.480940
0.505380
0.530790
0.555230
0.576740
0.595310
0.608990
0.618770
0.624630
0.626590
0.628540
0.628540
0.627570
0.626590
0.623660
0.619750
0.615840
0.611930
0.608020
0.603130
0.599220
0.594330
0.589440
0.584560
0.577710
0.570870
0.562070
0.551320
0.541540
0.530790
0.521020
0.511240
0.503420
0.497560
0.493650
0.488760
0.484850
0.479960
0.476050
0.471160
0.467250
0.463340
0.459430
0.455520
0.452590
0.449660
0.446730
0.444770
0.442820
0.440860
0.437930
0.435970
0.434020
0.432060
0.430110
0.427170
0.425220
0.423260
0.421310
0.419350
0.414470
0.408600
0.404690
0.402740
0.401760
0.400780
0.400780
0.400780
0.400780
0.399800
0.398830
0.397850
0.395890
0.393940
0.392960
0.392960
0.394920
0.400780
0.411530
0.427170
0.446730
0.470190
0.494620
0.515150
0.532750
0.551320
0.565980
0.577710
0.586510
0.592380
0.596290
0.596290
0.595310
0.592380
0.588470
0.584560
0.580650
0.575760
0.571850
0.567940
0.565000
0.561090
0.555230
0.549360
0.543500
0.537630
0.530790
0.522970
0.515150
0.508310
0.500490
0.491690
0.483870
0.478010
0.472140
0.467250
0.463340
0.458460
0.454550
0.450640
0.446730
0.442820
0.438910
0.435970
0.433040
0.431090
0.428150
0.426200
0.424240
0.421310
0.418380
0.414470
0.410560
0.407620
0.404690
0.402740
0.400780
0.397850
0.394920
0.392960
0.391010
0.388070
0.386120
0.384160
0.383190
0.383190
0.384160
0.383190
0.383190
0.382210
0.381230
0.379280
0.377320
0.375370
0.373410
0.371460
0.370480
0.372430
0.376340
0.383190
0.395890
0.413490
0.434020
0.457480
0.482890
0.506350
0.527860
0.544480
0.557180
0.564030
0.567940
0.567940
0.566960
0.565000
0.562070
0.558160
0.553270
0.549360
0.544480
0.540570
0.535680
0.530790
0.525900
0.521020
0.515150
0.509290
0.501470
0.493650
0.485830
0.477030
0.470190
0.463340
0.456500
0.451610
0.446730
0.442820
0.438910
0.435970
0.433040
0.431090
0.428150
0.426200
0.424240
0.422290
0.420330
0.417400
0.415440
0.414470
0.411530
0.407620
0.402740
0.399800
0.395890
0.392960
0.391010
0.389050
0.386120
0.384160
0.382210
0.380250
0.378300
0.377320
0.375370
0.373410
0.371460
0.370480
0.369500
0.368520
0.368520
0.369500
0.370480
0.372430
0.374390
0.375370
0.375370
0.376340
0.378300
0.381230
0.387100
0.397850
0.412510
0.431090
0.453570
0.478010
0.502440
0.522970
0.538610
0.554250
0.565980
0.573800
0.577710
0.579670
0.577710
0.574780
0.571850
0.567940
0.565000
0.563050
0.561090
0.558160
0.556210
0.554250
0.551320
0.546430
0.540570
0.534700
0.527860
0.520040
0.512220
0.504400
0.496580
0.490710
0.483870
0.478980
0.474100
0.469210
0.465300
0.461390
0.459430
0.456500
0.454550
0.451610
0.447700
0.444770
0.440860
0.437930
0.435000
0.433040
0.430110
0.428150
0.427170
0.426200
0.425220
0.425220
0.423260
0.422290
0.421310
0.418380
0.416420
0.413490
0.411530
0.409580
0.409580
0.408600
0.408600
0.407620
0.407620
0.407620
0.408600
0.407620
0.406650
0.404690
0.402740
0.400780
0.398830
0.397850
0.401760
0.410560
0.422290
0.438910
0.456500
0.477030
0.502440
0.529810
0.557180
0.581620
0.602150
0.617790
0.629520
0.636360
0.639300
0.641250
0.641250
0.640270
0.638320
0.635390
0.632450
0.629520
0.626590
0.621700
0.617790
0.612900
0.608990
0.604110
0.600200
0.594330
0.588470
0.581620
0.571850
0.561090
0.550340
0.539590
0.528840
0.521020
0.515150
0.509290
0.504400
0.500490
0.497560
0.494620
0.492670
0.490710
0.487780
0.484850
0.480940
0.477030
0.472140
0.467250
0.461390
0.456500
0.452590
0.449660
0.446730
0.444770
0.441840
0.438910
0.435970
0.433040
0.429130
0.426200
0.422290
0.419350
0.417400
0.416420
0.414470
0.413490
0.412510
0.411530
0.410560
0.409580
0.408600
0.407620
0.406650
0.405670
0.406650
0.408600
0.411530
0.418380
0.429130
0.443790
0.462370
0.485830
0.511240
0.537630
0.563050
0.586510
0.605080
0.617790
0.626590
0.632450
0.635390
0.637340
0.636360
0.634410
0.630500
0.626590
0.622680
0.617790
0.612900
0.608990
0.604110
0.600200
0.595310
0.590420
0.585530
0.579670
0.572830
0.565000
0.556210
0.545450
0.534700
0.523950
0.515150
0.507330
0.500490
0.494620
0.488760
0.483870
0.478980
0.475070
0.470190
0.465300
0.461390
0.456500
0.452590
0.449660
0.446730
0.443790
0.442820
0.440860
0.439880
0.438910
0.436950
0.435000
0.433040
0.430110
0.427170
0.424240
0.421310
0.419350
0.416420
0.414470
0.413490
0.412510
0.411530
0.409580
0.407620
0.405670
0.402740
0.401760
0.400780
0.399800
0.397850
0.395890
0.393940
0.392960
0.393940
0.397850
0.406650
0.421310
0.439880
0.463340
0.485830
0.507330
0.529810
0.553270
0.572830
0.588470
0.598240
0.603130
0.606060
0.605080
0.602150
0.599220
0.594330
0.591400
0.587490
0.583580
0.578690
0.574780
0.571850
0.567940
0.563050
0.557180
0.550340
0.542520
0.532750
0.523950
0.516130
0.508310
0.499510
0.491690
0.484850
0.478980
0.473120
0.468230
0.463340
0.459430
0.456500
0.453570
0.451610
0.449660
0.447700
0.445750
0.443790
0.441840
0.439880
0.436950
0.434020
0.430110
0.425220
0.421310
0.418380
0.416420
0.414470
0.412510
0.409580
0.407620
0.405670
0.403710
0.400780
0.398830
0.396870
0.393940
0.391980
0.391010
0.389050
0.387100
0.385140
0.383190
0.382210
0.381230
0.380250
0.378300
0.376340
0.375370
0.375370
0.375370
0.376340
0.380250
0.389050
0.403710
0.423260
0.446730
0.474100
0.501470
0.526880
0.549360
0.567940
0.579670
0.585530
0.589440
0.586510
0.579670
0.573800
0.568910
0.564030
0.559140
0.555230
0.550340
0.546430
0.541540
0.536660
0.531770
0.525900
0.519060
0.510260
0.501470
0.493650
0.484850
0.476050
0.469210
0.462370
0.456500
0.450640
0.446730
0.442820
0.439880
0.437930
0.436950
0.435000
0.433040
0.431090
0.429130
0.427170
0.424240
0.422290
0.421310
0.419350
0.416420
0.413490
0.410560
0.408600
0.405670
0.403710
0.400780
0.397850
0.395890
0.392960
0.390030
0.388070
0.386120
0.383190
0.380250
0.378300
0.376340
0.375370
0.375370
0.375370
0.376340
0.376340
0.376340
0.375370
0.375370
0.375370
0.375370
0.375370
0.377320
0.381230
0.388070
0.398830
0.414470
0.434020
0.457480
0.479960
0.499510
0.521020
0.541540
0.557180
0.568910
0.575760
0.577710
0.576740
0.574780
0.572830
0.570870
0.568910
0.566960
0.564030
0.562070
0.560120
0.557180
0.554250
0.549360
0.544480
0.538610
0.532750
0.525900
0.519060
0.511240
0.504400
0.497560
0.491690
0.486800
0.481920
0.477030
0.474100
0.471160
0.469210
0.466280
0.463340
0.459430
0.456500
0.452590
0.448680
0.444770
0.442820
0.439880
0.437930
0.435000
0.433040
0.430110
0.427170
0.425220
0.423260
0.422290
0.420330
0.418380
0.418380
0.417400
0.417400
0.417400
0.416420
0.415440
0.413490
0.411530
0.410560
0.409580
0.408600
0.409580
0.410560
0.411530
0.411530
0.410560
0.409580
0.407620
0.405670
0.405670
0.408600
0.413490
0.421310
0.435000
0.452590
0.474100
0.499510
0.525900
0.550340
0.570870
0.588470
0.600200
0.608020
0.611930
0.612900
0.613880
0.613880
0.613880
0.613880
0.613880
0.612900
0.611930
0.608990
0.605080
0.601170
0.597260
0.593350
0.588470
0.583580
0.576740
0.569890
0.562070
0.552300
0.542520
0.532750
0.521990
0.513200
0.506350
0.501470
0.497560
0.493650
0.490710
0.486800
0.482890
0.478010
0.474100
0.470190
0.466280
0.462370
0.459430
0.456500
0.452590
0.449660
0.445750
0.442820
0.439880
0.437930
0.435970
0.433040
0.431090
0.428150
0.424240
0.420330
0.417400
0.414470
0.412510
0.409580
0.407620
0.405670
0.403710
0.403710
0.402740
0.402740
0.402740
0.403710
0.402740
0.402740
0.402740
0.401760
0.401760
0.401760
0.403710
0.409580
0.419350
0.434020
0.453570
0.476050
0.501470
0.522970
0.542520
0.561090
0.577710
0.590420
0.600200
0.606060
0.608990
0.608020
0.606060
0.603130
0.599220
0.595310
0.592380
0.588470
0.584560
0.580650
0.576740
0.573800
0.570870
0.566960
0.561090
0.556210
0.550340
0.543500
0.534700
0.526880
0.518080
0.508310
0.499510
0.490710
0.482890
0.477030
0.470190
0.465300
0.460410
0.455520
0.451610
0.448680
0.446730
0.443790
0.441840
0.439880
0.437930
0.435000
0.433040
0.429130
0.427170
0.424240
0.422290
0.420330
0.419350
0.417400
0.415440
0.413490
0.410560
0.408600
0.406650
0.404690
0.402740
0.401760
0.400780
0.399800
0.399800
0.398830
0.396870
0.394920
0.393940
0.392960
0.391980
0.391010
0.389050
0.389050
0.389050
0.391010
0.393940
0.398830
0.408600
0.423260
0.440860
0.462370
0.485830
0.510260
0.532750
0.552300
0.567940
0.579670
0.587490
0.590420
0.591400
0.590420
0.588470
0.584560
0.580650
0.577710
0.575760
0.572830
0.570870
0.565980
0.561090
0.555230
0.550340
0.543500
0.535680
0.526880
0.519060
0.511240
0.505380
0.498530
0.491690
0.484850
0.478980
0.474100
0.469210
0.464320
0.460410
0.455520
0.451610
0.447700
0.444770
0.441840
0.439880
0.437930
0.435000
0.433040
0.431090
0.430110
0.428150
0.426200
0.423260
0.420330
0.418380
0.415440
0.413490
0.411530
0.408600
0.406650
0.403710
0.401760
0.399800
0.397850
0.395890
0.392960
0.390030
0.387100
0.385140
0.382210
0.380250
0.378300
0.378300
0.377320
0.376340
0.375370
0.375370
0.375370
0.375370
0.375370
0.377320
0.381230
0.389050
0.401760
0.419350
0.437930
0.457480
0.479960
0.503420
0.525900
0.545450
0.560120
0.569890
0.573800
0.575760
0.574780
0.570870
0.566960
0.564030
0.561090
0.557180
0.552300
0.547410
0.541540
0.535680
0.528840
0.521990
0.514170
0.507330
0.500490
0.493650
0.486800
0.479960
0.473120
0.467250
0.460410
0.454550
0.448680
0.445750
0.442820
0.439880
0.437930
0.435970
0.435000
0.434020
0.432060
0.430110
0.428150
0.426200
0.424240
0.422290
0.418380
0.414470
0.410560
0.405670
0.402740
0.399800
0.396870
0.393940
0.391010
0.389050
0.387100
0.385140
0.383190
0.382210
0.382210
0.381230
0.381230
0.381230
0.381230
0.382210
0.382210
0.382210
0.381230
0.381230
0.379280
0.378300
0.377320
0.378300
0.379280
0.381230
0.384160
0.390030
0.401760
0.418380
0.436950
0.459430
0.483870
0.507330
0.530790
0.550340
0.566960
0.578690
0.585530
0.588470
0.590420
0.590420
0.589440
0.586510
0.582600
0.580650
0.577710
0.575760
0.572830
0.570870
0.568910
0.565980
0.562070
0.556210
0.550340
0.543500
0.533720
0.524930
0.516130
0.509290
0.503420
0.498530
0.493650
0.489740
0.485830
0.482890
0.482890
0.483870
0.481920
0.478010
0.474100
0.469210
0.464320
0.460410
0.457480
0.455520
0.453570
0.450640
0.448680
0.446730
0.445750
0.443790
0.442820
0.440860
0.437930
0.435970
0.434020
0.430110
0.428150
0.426200
0.423260
0.421310
0.419350
0.419350
0.419350
0.419350
0.418380
0.417400
0.417400
0.417400
0.418380
0.418380
0.417400
0.415440
0.413490
0.412510
0.412510
0.415440
0.423260
0.435000
0.452590
0.477030
0.500490
0.524930
0.551320
0.577710
0.603130
0.623660
0.640270
0.652980
0.659820
0.663730
0.664710
0.663730
0.660800
0.655910
0.652000
0.649070
0.646140
0.643210
0.640270
0.636360
0.631480
0.627570
0.622680
0.616810
0.608990
0.601170
0.592380
0.581620
0.569890
0.558160
0.546430
0.535680
0.524930
0.516130
0.509290
0.503420
0.497560
0.493650
0.491690
0.489740
0.487780
0.484850
0.480940
0.477030
0.472140
0.467250
0.462370
0.457480
0.452590
0.449660
0.447700
0.445750
0.443790
0.440860
0.436950
0.434020
0.431090
0.429130
0.426200
0.424240
0.422290
0.420330
0.418380
0.416420
0.415440
0.413490
0.411530
0.411530
0.412510
0.414470
0.415440
0.416420
0.416420
0.415440
0.413490
0.412510
0.412510
0.416420
0.424240
0.437930
0.456500
0.481920
0.511240
0.541540
0.570870
0.596290
0.617790
0.635390
0.646140
0.652980
0.657870
0.659820
0.659820
0.657870
0.653960
0.649070
0.644180
0.639300
0.636360
0.632450
0.628540
0.623660
0.617790
0.610950
0.603130
0.596290
0.587490
0.577710
0.567940
0.558160
0.548390
0.537630
0.527860
0.521020
0.514170
0.506350
0.500490
0.495600
0.489740
0.484850
0.480940
0.478980
0.476050
0.473120
0.468230
0.464320
0.461390
0.457480
0.454550
0.451610
0.448680
0.446730
0.443790
0.440860
0.438910
0.435970
0.434020
0.431090
0.429130
0.428150
0.426200
0.423260
0.421310
0.419350
0.418380
0.417400
0.416420
0.415440
0.414470
0.412510
0.411530
0.411530
0.409580
0.407620
0.405670
0.403710
0.401760
0.402740
0.404690
0.410560
0.421310
0.437930
0.460410
0.482890
0.506350
0.532750
0.558160
0.582600
0.601170
0.613880
0.622680
0.626590
0.625610
0.622680
0.618770
0.613880
0.609970
0.607040
0.604110
0.601170
0.598240
0.595310
0.591400
0.586510
0.579670
0.572830
0.565000
0.555230
0.545450
0.536660
0.526880
0.517110
0.507330
0.496580
0.487780
0.479960
0.473120
0.468230
0.465300
0.463340
0.462370
0.460410
0.457480
0.454550
0.451610
0.448680
0.446730
0.443790
0.440860
0.437930
0.427170
0.413490
0.404690
0.399800
0.395890
0.391980
0.388070
0.386120
0.383190
0.380250
0.377320
0.374390
0.371460
0.368520
0.366570
0.364610
0.363640
0.361680
0.359730
0.356790
0.354840
0.352880
0.351910
0.351910
0.351910
0.351910
0.351910
0.351910
0.351910
0.351910
0.353860
0.356790
0.363640
0.375370
0.392960
0.415440
0.440860
0.468230
0.494620
0.519060
0.538610
0.552300
0.563050
0.570870
0.575760
0.577710
0.576740
0.572830
0.567940
0.562070
0.556210
0.550340
0.545450
0.540570
0.535680
0.528840
0.521990
0.513200
0.504400
0.496580
0.488760
0.480940
0.473120
0.464320
0.456500
0.450640
0.445750
0.439880
0.434020
0.429130
0.426200
0.423260
0.421310
0.419350
0.417400
0.415440
0.413490
0.411530
0.409580
0.408600
0.405670
0.403710
0.401760
0.398830
0.395890
0.391980
0.389050
0.386120
0.383190
0.380250
0.379280
0.377320
0.374390
0.370480
0.367550
0.364610
0.361680
0.359730
0.356790
0.355820
0.353860
0.352880
0.351910
0.351910
0.351910
0.351910
0.351910
0.351910
0.351910
0.351910
0.353860
0.355820
0.360700
0.368520
0.382210
0.398830
0.417400
0.441840
0.469210
0.495600
0.521020
0.542520
0.558160
0.568910
0.575760
0.577710
0.576740
0.573800
0.570870
0.567940
0.565000
0.563050
0.560120
0.558160
0.555230
0.553270
0.550340
0.544480
0.538610
0.531770
0.525900
0.518080
0.509290
0.501470
0.493650
0.485830
0.478980
0.474100
0.468230
0.463340
0.460410
0.458460
0.457480
0.456500
0.454550
0.451610
0.447700
0.443790
0.439880
0.435000
0.430110
0.426200
0.423260
0.420330
0.416420
0.414470
0.412510
0.410560
0.408600
0.406650
0.403710
0.401760
0.398830
0.396870
0.394920
0.391980
0.390030
0.389050
0.388070
0.388070
0.388070
0.388070
0.388070
0.388070
0.388070
0.388070
0.389050
0.388070
0.387100
0.385140
0.383190
0.382210
0.381230
0.382210
0.385140
0.391010
0.403710
0.421310
0.445750
0.474100
0.503420
0.531770
0.555230
0.573800
0.590420
0.605080
0.615840
0.622680
0.626590
0.626590
0.624630
0.620720
0.616810
0.612900
0.609970
0.608020
0.605080
0.602150
0.598240
0.594330
0.589440
0.584560
0.579670
0.573800
0.566960
0.559140
0.549360
0.539590
0.529810
0.520040
0.509290
0.501470
0.493650
0.487780
0.482890
0.478010
0.473120
0.468230
0.464320
0.460410
0.457480
0.453570
0.450640
0.446730
0.441840
0.436950
0.433040
0.429130
0.425220
0.423260
0.420330
0.418380
0.415440
0.413490
0.410560
0.407620
0.408600
0.413490
0.416420
0.417400
0.418380
0.418380
0.418380
0.417400
0.417400
0.416420
0.415440
0.414470
0.413490
0.412510
0.410560
0.409580
0.407620
0.405670
0.404690
0.404690
0.407620
0.411530
0.419350
0.432060
0.449660
0.471160
0.496580
0.521020
0.544480
0.565000
0.582600
0.595310
0.605080
0.609970
0.611930
0.612900
0.612900
0.610950
0.608990
0.607040
0.605080
0.603130
0.601170
0.598240
0.594330
0.590420
0.585530
0.579670
0.573800
0.566960
0.559140
0.550340
0.540570
0.530790
0.520040
0.510260
0.502440
0.496580
0.491690
0.487780
0.483870
0.480940
0.477030
0.474100
0.471160
0.468230
0.465300
0.461390
0.458460
0.454550
0.449660
0.446730
0.443790
0.440860
0.438910
0.436950
0.435000
0.432060
0.428150
0.425220
0.422290
0.419350
0.416420
0.414470
0.413490
0.411530
0.409580
0.408600
0.407620
0.407620
0.407620
0.406650
0.404690
0.403710
0.402740
0.401760
0.401760
0.400780
0.399800
0.398830
0.396870
0.395890
0.395890
0.398830
0.404690
0.416420
0.433040
0.455520
0.477030
0.497560
0.519060
0.541540
0.560120
0.574780
0.584560
0.591400
0.595310
0.597260
0.596290
0.593350
0.590420
0.586510
0.582600
0.578690
0.574780
0.571850
0.568910
0.566960
0.563050
0.558160
0.553270
0.547410
0.540570
0.533720
0.525900
0.518080
0.509290
0.501470
0.494620
0.488760
0.482890
0.478010
0.472140
0.467250
0.463340
0.458460
0.455520
0.452590
0.448680
0.445750
0.443790
0.440860
0.438910
0.436950
0.435000
0.431090
0.427170
0.423260
0.421310
0.419350
0.417400
0.415440
0.413490
0.411530
0.409580
0.407620
0.405670
0.402740
0.400780
0.398830
0.396870
0.394920
0.393940
0.391980
0.390030
0.388070
0.386120
0.384160
0.382210
0.380250
0.378300
0.377320
0.376340
0.376340
0.376340
0.376340
0.377320
0.381230
0.389050
0.400780
0.417400
0.437930
0.461390
0.485830
0.509290
0.529810
0.545450
0.557180
0.565980
0.570870
0.573800
0.573800
0.572830
0.570870
0.567940
0.563050
0.558160
0.552300
0.546430
0.540570
0.534700
0.528840
0.522970
0.516130
0.508310
0.500490
0.492670
0.485830
0.479960
0.474100
0.470190
0.466280
0.462370
0.458460
0.453570
0.448680
0.444770
0.441840
0.438910
0.436950
0.435000
0.433040
0.432060
0.430110
0.429130
0.428150
0.425220
0.420330
0.416420
0.412510
0.410560
0.407620
0.404690
0.401760
0.397850
0.394920
0.392960
0.390030
0.386120
0.383190
0.380250
0.378300
0.376340
0.375370
0.375370
0.375370
0.375370
0.376340
0.378300
0.380250
0.382210
0.383190
0.382210
0.382210
0.382210
0.381230
0.380250
0.382210
0.386120
0.393940
0.403710
0.416420
0.435970
0.459430
0.485830
0.511240
0.535680
0.556210
0.571850
0.583580
0.590420
0.593350
0.595310
0.595310
0.594330
0.592380
0.589440
0.585530
0.581620
0.578690
0.576740
0.573800
0.569890
0.565980
0.561090
0.556210
0.550340
0.544480
0.538610
0.531770
0.523950
0.514170
0.505380
0.497560
0.491690
0.486800
0.481920
0.478010
0.474100
0.472140
0.471160
0.469210
0.466280
0.464320
0.462370
0.459430
0.456500
0.452590
0.448680
0.443790
0.440860
0.437930
0.435000
0.433040
0.430110
0.428150
0.426200
0.425220
0.424240
0.422290
0.421310
0.419350
0.417400
0.415440
0.414470
0.412510
0.410560
0.408600
0.406650
0.403710
0.401760
0.400780
0.399800
0.398830
0.398830
0.398830
0.398830
0.398830
0.397850
0.397850
0.399800
0.405670
0.417400
0.434020
0.455520
0.480940
0.507330
0.534700
0.557180
0.573800
0.589440
0.603130
0.612900
0.619750
0.624630
0.628540
0.629520
0.630500
0.631480
0.630500
0.627570
0.623660
0.619750
0.615840
0.611930
0.607040
0.602150
0.596290
0.588470
0.581620
0.573800
0.566960
0.561090
0.554250
0.547410
0.539590
0.531770
0.522970
0.515150
0.509290
0.504400
0.499510
0.494620
0.489740
0.485830
0.482890
0.479960
0.476050
0.472140
0.468230
0.464320
0.459430
0.455520
0.450640
0.446730
0.443790
0.441840
0.438910
0.437930
0.435970
0.434020
0.432060
0.430110
0.427170
0.424240
0.422290
0.419350
0.417400
0.415440
0.413490
0.412510
0.412510
0.412510
0.412510
0.412510
0.411530
0.410560
0.409580
0.407620
0.406650
0.406650
0.408600
0.411530
0.418380
0.430110
0.446730
0.468230
0.493650
0.521020
0.547410
0.571850
0.592380
0.608990
0.621700
0.630500
0.634410
0.636360
0.637340
0.636360
0.634410
0.632450
0.629520
0.627570
0.624630
0.621700
0.617790
0.613880
0.609970
0.605080
0.600200
0.592380
0.584560
0.575760
0.565980
0.556210
0.546430
0.537630
0.527860
0.520040
0.513200
0.509290
0.505380
0.501470
0.498530
0.495600
0.491690
0.487780
0.483870
0.478980
0.475070
0.470190
0.466280
0.462370
0.458460
0.454550
0.450640
0.446730
0.443790
0.441840
0.438910
0.436950
0.435000
0.433040
0.430110
0.428150
0.426200
0.425220
0.423260
0.421310
0.419350
0.417400
0.415440
0.412510
0.411530
0.410560
0.410560
0.409580
0.410560
0.410560
0.409580
0.407620
0.407620
0.406650
0.406650
0.409580
0.415440
0.427170
0.442820
0.462370
0.486800
0.508310
0.527860
0.548390
0.566960
0.583580
0.595310
0.603130
0.608020
0.609970
0.610950
0.608990
0.607040
0.603130
0.599220
0.595310
0.591400
0.587490
0.583580
0.578690
0.572830
0.566960
0.561090
0.555230
0.548390
0.539590
0.530790
0.522970
0.514170
0.506350
0.500490
0.495600
0.490710
0.485830
0.481920
0.478010
0.474100
0.469210
0.466280
0.462370
0.458460
0.454550
0.450640
0.446730
0.442820
0.439880
0.437930
0.435970
0.434020
0.432060
0.429130
0.428150
0.426200
0.423260
0.420330
0.416420
0.411530
0.408600
0.405670
0.402740
0.400780
0.398830
0.396870
0.394920
0.393940
0.391980
0.391010
0.391010
0.391010
0.391010
0.389050
0.388070
0.386120
0.383190
0.380250
0.378300
0.376340
0.376340
0.380250
0.386120
0.397850
0.414470
0.435000
0.458460
0.483870
0.508310
0.530790
0.550340
0.564030
0.573800
0.581620
0.586510
0.589440
0.589440
0.587490
0.584560
0.579670
0.574780
0.568910
0.563050
0.559140
0.554250
0.550340
0.545450
0.540570
0.533720
0.525900
0.517110
0.508310
0.500490
0.493650
0.486800
0.480940
0.476050
0.472140
0.467250
0.463340
0.459430
0.456500
0.453570
0.450640
0.447700
0.443790
0.440860
0.437930
0.434020
0.431090
0.429130
0.425220
0.422290
0.419350
0.416420
0.413490
0.409580
0.405670
0.401760
0.398830
0.396870
0.394920
0.392960
0.391010
0.388070
0.384160
0.381230
0.378300
0.376340
0.374390
0.374390
0.375370
0.375370
0.375370
0.375370
0.375370
0.374390
0.373410
0.373410
0.372430
0.372430
0.372430
0.373410
0.375370
0.381230
0.391010
0.403710
0.419350
0.439880
0.463340
0.487780
0.512220
0.534700
0.554250
0.568910
0.578690
0.585530
0.588470
0.589440
0.587490
0.584560
0.580650
0.576740
0.572830
0.568910
0.566960
0.563050
0.558160
0.552300
0.546430
0.540570
0.533720
0.525900
0.519060
0.511240
0.504400
0.499510
0.494620
0.490710
0.485830
0.481920
0.478010
0.474100
0.470190
0.468230
0.466280
0.464320
0.463340
0.460410
0.457480
0.454550
0.450640
0.446730
0.442820
0.438910
0.436950
0.435000
0.433040
0.430110
0.427170
0.423260
0.420330
0.417400
0.415440
0.413490
0.411530
0.410560
0.408600
0.408600
0.407620
0.406650
0.404690
0.402740
0.400780
0.399800
0.399800
0.399800
0.399800
0.401760
0.402740
0.402740
0.403710
0.403710
0.403710
0.405670
0.409580
0.418380
0.431090
0.448680
0.470190
0.493650
0.518080
0.544480
0.566960
0.585530
0.602150
0.615840
0.625610
0.632450
0.637340
0.639300
0.641250
0.641250
0.641250
0.639300
0.637340
0.635390
0.632450
0.630500
0.627570
0.623660
0.619750
0.615840
0.608990
0.601170
0.590420
0.580650
0.570870
0.562070
0.554250
0.547410
0.539590
0.531770
0.524930
0.518080
0.512220
0.507330
0.502440
0.499510
0.496580
0.493650
0.491690
0.488760
0.485830
0.481920
0.478010
0.474100
0.469210
0.465300
0.460410
0.456500
0.452590
0.447700
0.444770
0.442820
0.440860
0.437930
0.435970
0.434020
0.432060
0.431090
0.429130
0.427170
0.425220
0.423260
0.421310
0.420330
0.419350
0.419350
0.419350
0.418380
0.416420
0.414470
0.412510
0.411530
0.411530
0.414470
0.420330
0.429130
0.439880
0.456500
0.478010
0.502440
0.527860
0.552300
0.574780
0.593350
0.608020
0.618770
0.625610
0.630500
0.632450
0.633430
0.633430
0.633430
0.632450
0.630500
0.628540
0.625610
0.621700
0.617790
0.613880
0.608990
0.603130
0.597260
0.589440
0.581620
0.573800
0.565980
0.556210
0.545450
0.534700
0.524930
0.516130
0.510260
0.505380
0.501470
0.497560
0.493650
0.488760
0.484850
0.479960
0.476050
0.472140
0.468230
0.464320
0.460410
0.456500
0.452590
0.449660
0.445750
0.442820
0.440860
0.438910
0.435970
0.433040
0.430110
0.428150
0.425220
0.423260
0.421310
0.420330
0.418380
0.416420
0.414470
0.412510
0.410560
0.407620
0.405670
0.403710
0.401760
0.399800
0.396870
0.395890
0.393940
0.392960
0.392960
0.393940
0.395890
0.400780
0.410560
0.423260
0.440860
0.463340
0.488760
0.511240
0.531770
0.553270
0.571850
0.586510
0.597260
0.606060
0.610950
0.613880
0.614860
0.615840
0.615840
0.613880
0.610950
0.606060
0.600200
0.593350
0.585530
0.579670
0.573800
0.566960
0.561090
0.554250
0.547410
0.537630
0.528840
0.521020
0.514170
0.506350
0.500490
0.494620
0.489740
0.484850
0.480940
0.476050
0.472140
0.467250
0.463340
0.459430
0.455520
0.451610
0.447700
0.443790
0.440860
0.438910
0.435970
0.434020
0.431090
0.428150
0.424240
0.422290
0.420330
0.417400
0.415440
0.412510
0.410560
0.407620
0.403710
0.398830
0.394920
0.391010
0.388070
0.385140
0.383190
0.381230
0.381230
0.380250
0.380250
0.381230
0.380250
0.379280
0.377320
0.376340
0.375370
0.375370
0.375370
0.375370
0.378300
0.384160
0.393940
0.409580
0.429130
0.451610
0.475070
0.498530
0.520040
0.539590
0.555230
0.565980
0.571850
0.575760
0.576740
0.576740
0.571850
0.565000
0.560120
0.556210
0.551320
0.546430
0.540570
0.535680
0.529810
0.524930
0.518080
0.510260
0.503420
0.496580
0.488760
0.481920
0.475070
0.469210
0.462370
0.457480
0.452590
0.448680
0.444770
0.441840
0.438910
0.436950
0.435000
0.432060
0.430110
0.429130
0.428150
0.426200
0.425220
0.423260
0.422290
0.420330
0.418380
0.416420
0.414470
0.412510
0.410560
0.408600
0.406650
0.404690
0.402740
0.401760
0.401760
0.400780
0.399800
0.397850
0.397850
0.396870
0.395890
0.395890
0.394920
0.393940
0.391980
0.390030
0.390030
0.389050
0.387100
0.386120
0.385140
0.385140
0.387100
0.391980
0.400780
0.413490
0.432060
0.453570
0.475070
0.494620
0.517110
0.538610
0.557180
0.571850
0.582600
0.590420
0.594330
0.596290
0.597260
0.597260
0.596290
0.593350
0.590420
0.588470
0.585530
0.581620
0.578690
0.573800
0.566960
0.561090
0.555230
0.548390
0.541540
0.534700
0.525900
0.516130
0.508310
0.501470
0.496580
0.492670
0.487780
0.483870
0.479960
0.477030
0.473120
0.470190
0.466280
0.463340
0.459430
0.455520
0.451610
0.449660
0.446730
0.442820
0.439880
0.436950
0.435000
0.433040
0.432060
0.430110
0.428150
0.426200
0.424240
0.422290
0.420330
0.416420
0.412510
0.409580
0.406650
0.404690
0.402740
0.401760
0.400780
0.400780
0.400780
0.400780
0.400780
0.399800
0.398830
0.397850
0.395890
0.394920
0.393940
0.394920
0.397850
0.403710
0.414470
0.429130
0.448680
0.472140
0.496580
0.521020
0.544480
0.565000
0.581620
0.594330
0.602150
0.608020
0.612900
0.614860
0.615840
0.615840
0.615840
0.615840
0.614860
0.613880
0.612900
0.610950
0.608990
0.606060
0.602150
0.598240
0.594330
0.589440
0.582600
0.573800
0.565000
0.554250
0.543500
0.533720
0.523950
0.515150
0.507330
0.500490
0.494620
0.490710
0.485830
0.481920
0.478980
0.476050
0.472140
0.469210
0.467250
0.464320
0.460410
0.457480
0.453570
0.449660
0.444770
0.440860
0.437930
0.435000
0.433040
0.430110
0.428150
0.427170
0.426200
0.424240
0.422290
0.420330
0.418380
0.416420
0.414470
0.414470
0.413490
0.413490
0.413490
0.413490
0.413490
0.412510
0.411530
0.409580
0.407620
0.406650
0.406650
0.408600
0.415440
0.425220
0.439880
0.458460
0.477030
0.495600
0.518080
0.541540
0.562070
0.580650
0.594330
0.605080
0.610950
0.613880
0.614860
0.614860
0.613880
0.611930
0.608990
0.607040
0.605080
0.603130
0.601170
0.598240
0.594330
0.589440
0.582600
0.574780
0.566960
0.560120
0.552300
0.542520
0.532750
0.523950
0.516130
0.509290
0.503420
0.498530
0.493650
0.488760
0.484850
0.480940
0.477030
0.473120
0.470190
0.466280
0.462370
0.458460
0.454550
0.449660
0.445750
0.441840
0.437930
0.435000
0.433040
0.431090
0.429130
0.427170
0.425220
0.423260
0.421310
0.419350
0.416420
0.414470
0.412510
0.410560
0.408600
0.407620
0.405670
0.403710
0.401760
0.399800
0.398830
0.397850
0.396870
0.395890
0.394920
0.392960
0.391010
0.389050
0.389050
0.389050
0.393940
0.402740
0.416420
0.435970
0.459430
0.484850
0.512220
0.536660
0.557180
0.572830
0.583580
0.592380
0.598240
0.602150
0.603130
0.601170
0.597260
0.594330
0.590420
0.585530
0.581620
0.577710
0.572830
0.568910
0.565980
0.561090
0.556210
0.550340
0.542520
0.533720
0.523950
0.514170
0.504400
0.495600
0.487780
0.480940
0.474100
0.467250
0.462370
0.457480
0.452590
0.449660
0.447700
0.445750
0.443790
0.440860
0.436950
0.435000
0.432060
0.430110
0.428150
0.425220
0.423260
0.420330
0.416420
0.413490
0.409580
0.404690
0.400780
0.397850
0.395890
0.392960
0.391010
0.387100
0.385140
0.382210
0.380250
0.378300
0.376340
0.373410
0.371460
0.370480
0.368520
0.367550
0.366570
0.366570
0.366570
0.366570
0.366570
0.366570
0.366570
0.368520
0.373410
0.382210
0.392960
0.406650
0.426200
0.449660
0.474100
0.498530
0.521020
0.540570
0.556210
0.566960
0.573800
0.576740
0.577710
0.574780
0.571850
0.568910
0.565980
0.564030
0.560120
0.555230
0.549360
0.543500
0.537630
0.530790
0.523950
0.517110
0.510260
0.503420
0.496580
0.489740
0.483870
0.477030
0.470190
0.464320
0.459430
0.452590
0.447700
0.442820
0.438910
0.435000
0.433040
0.430110
0.428150
0.425220
0.423260
0.421310
0.419350
0.416420
0.414470
0.412510
0.410560
0.409580
0.406650
0.402740
0.399800
0.395890
0.391980
0.388070
0.384160
0.381230
0.378300
0.376340
0.374390
0.373410
0.371460
0.369500
0.368520
0.367550
0.366570
0.366570
0.366570
0.366570
0.366570
0.366570
0.366570
0.366570
0.366570
0.366570
0.366570
0.367550
0.371460
0.378300
0.390030
0.406650
0.428150
0.452590
0.479960
0.502440
0.521990
0.541540
0.558160
0.570870
0.580650
0.587490
0.591400
0.591400
0.590420
0.586510
0.583580
0.579670
0.574780
0.569890
0.565980
0.562070
0.557180
0.551320
0.545450
0.539590
0.531770
0.522970
0.513200
0.505380
0.498530
0.493650
0.488760
0.484850
0.480940
0.478010
0.478980
0.480940
0.478980
0.476050
0.473120
0.468230
0.464320
0.460410
0.457480
0.454550
0.450640
0.446730
0.443790
0.441840
0.438910
0.436950
0.434020
0.432060
0.430110
0.428150
0.426200
0.423260
0.421310
0.418380
0.416420
0.414470
0.412510
0.412510
0.412510
0.412510
0.411530
0.411530
0.410560
0.410560
0.411530
0.411530
0.411530
0.411530
0.410560
0.409580
0.409580
0.409580
0.411530
0.415440
0.422290
0.432060
0.445750
0.466280
0.490710
0.518080
0.544480
0.568910
0.590420
0.608020
0.621700
0.631480
0.636360
0.638320
0.639300
0.639300
0.637340
0.635390
0.632450
0.629520
0.627570
0.624630
0.621700
0.617790
0.612900
0.607040
0.600200
0.592380
0.585530
0.578690
0.571850
0.564030
0.555230
0.545450
0.534700
0.524930
0.517110
0.512220
0.507330
0.503420
0.498530
0.493650
0.489740
0.485830
0.481920
0.478010
0.475070
0.471160
0.467250
0.463340
0.460410
0.456500
0.452590
0.449660
0.446730
0.442820
0.438910
0.435970
0.433040
0.430110
0.428150
0.425220
0.424240
0.423260
0.423260
0.423260
0.422290
0.420330
0.418380
0.416420
0.414470
0.411530
0.410560
0.410560
0.409580
0.408600
0.408600
0.407620
0.407620
0.406650
0.405670
0.407620
0.411530
0.419350
0.433040
0.450640
0.475070
0.497560
0.520040
0.545450
0.569890
0.591400
0.608020
0.620720
0.629520
0.636360
0.640270
0.643210
0.644180
0.644180
0.642230
0.640270
0.638320
0.634410
0.630500
0.626590
0.621700
0.616810
0.609970
0.603130
0.596290
0.588470
0.581620
0.574780
0.565000
0.555230
0.544480
0.534700
0.525900
0.519060
0.513200
0.508310
0.503420
0.498530
0.493650
0.489740
0.486800
0.481920
0.476050
0.470190
0.464320
0.458460
0.453570
0.449660
0.446730
0.443790
0.440860
0.439880
0.437930
0.436950
0.435970
0.434020
0.432060
0.429130
0.425220
0.421310
0.417400
0.414470
0.412510
0.410560
0.409580
0.408600
0.408600
0.407620
0.406650
0.406650
0.408600
0.409580
0.409580
0.408600
0.406650
0.404690
0.403710
0.402740
0.404690
0.408600
0.417400
0.432060
0.450640
0.475070
0.502440
0.529810
0.555230
0.578690
0.598240
0.610950
0.619750
0.625610
0.629520
0.631480
0.631480
0.629520
0.625610
0.621700
0.617790
0.612900
0.608990
0.604110
0.600200
0.595310
0.590420
0.585530
0.579670
0.572830
0.564030
0.554250
0.544480
0.532750
0.522970
0.513200
0.504400
0.497560
0.490710
0.485830
0.480940
0.476050
0.471160
0.467250
0.462370
0.457480
0.453570
0.449660
0.440860
0.429130
0.422290
0.417400
0.412510
0.407620
0.403710
0.400780
0.397850
0.393940
0.391010
0.387100
0.385140
0.382210
0.379280
0.376340
0.374390
0.371460
0.369500
0.366570
0.364610
0.361680
0.359730
0.357770
0.357770
0.358750
0.358750
0.358750
0.357770
0.356790
0.354840
0.352880
0.350930
0.348970
0.348000
0.348970
0.352880
0.358750
0.369500
0.387100
0.410560
0.437930
0.466280
0.493650
0.519060
0.540570
0.557180
0.568910
0.576740
0.578690
0.577710
0.574780
0.570870
0.566960
0.562070
0.558160
0.554250
0.550340
0.545450
0.540570
0.534700
0.527860
0.521990
0.516130
0.508310
0.499510
0.487780
0.478010
0.470190
0.462370
0.454550
0.447700
0.442820
0.437930
0.433040
0.428150
0.425220
0.421310
0.418380
0.415440
0.413490
0.411530
0.410560
0.408600
0.405670
0.403710
0.401760
0.399800
0.398830
0.396870
0.393940
0.391980
0.388070
0.385140
0.381230
0.377320
0.374390
0.371460
0.369500
0.366570
0.364610
0.361680
0.359730
0.357770
0.354840
0.352880
0.350930
0.348970
0.348000
0.348000
0.347020
0.347020
0.347020
0.347020
0.347020
0.347020
0.347020
0.347020
0.348000
0.351910
0.361680
0.376340
0.395890
0.418380
0.444770
0.468230
0.488760
0.511240
0.531770
0.548390
0.560120
0.566960
0.568910
0.567940
0.565980
0.563050
0.561090
0.559140
0.556210
0.553270
0.549360
0.545450
0.539590
0.532750
0.525900
0.519060
0.512220
0.504400
0.495600
0.485830
0.478010
0.471160
0.465300
0.459430
0.453570
0.448680
0.443790
0.439880
0.435000
0.432060
0.428150
0.424240
0.421310
0.419350
0.417400
0.415440
0.413490
0.410560
0.408600
0.406650
0.403710
0.401760
0.398830
0.396870
0.394920
0.392960
0.391010
0.389050
0.388070
0.387100
0.385140
0.385140
0.384160
0.384160
0.383190
0.382210
0.380250
0.378300
0.378300
0.377320
0.377320
0.378300
0.379280
0.380250
0.380250
0.378300
0.377320
0.375370
0.374390
0.373410
0.375370
0.381230
0.391980
0.407620
0.428150
0.452590
0.479960
0.508310
0.535680
0.559140
0.578690
0.593350
0.603130
0.609970
0.613880
0.615840
0.616810
0.617790
0.616810
0.613880
0.609970
0.606060
0.601170
0.597260
0.592380
0.587490
0.581620
0.575760
0.567940
0.561090
0.553270
0.543500
0.532750
0.521020
0.510260
0.499510
0.489740
0.483870
0.478980
0.474100
0.470190
0.465300
0.461390
0.457480
0.453570
0.449660
0.445750
0.441840
0.436950
0.433040
0.429130
0.425220
0.421310
0.419350
0.417400
0.415440
0.418380
0.425220
0.427170
0.427170
0.426200
0.424240
0.423260
0.422290
0.420330
0.418380
0.417400
0.415440
0.414470
0.412510
0.409580
0.408600
0.408600
0.409580
0.410560
0.411530
0.411530
0.410560
0.409580
0.408600
0.408600
0.409580
0.411530
0.417400
0.426200
0.439880
0.458460
0.478010
0.498530
0.522970
0.547410
0.569890
0.589440
0.604110
0.613880
0.621700
0.626590
0.630500
0.633430
0.633430
0.633430
0.633430
0.632450
0.630500
0.627570
0.624630
0.620720
0.615840
0.611930
0.606060
0.600200
0.593350
0.585530
0.579670
0.572830
0.565000
0.556210
0.546430
0.535680
0.525900
0.517110
0.511240
0.505380
0.499510
0.496580
0.493650
0.489740
0.485830
0.481920
0.477030
0.473120
0.469210
0.464320
0.460410
0.455520
0.452590
0.448680
0.445750
0.442820
0.439880
0.437930
0.435970
0.434020
0.431090
0.428150
0.424240
0.420330
0.417400
0.414470
0.411530
0.409580
0.407620
0.406650
0.405670
0.405670
0.406650
0.407620
0.406650
0.406650
0.406650
0.404690
0.403710
0.401760
0.400780
0.399800
0.399800
0.403710
0.413490
0.427170
0.446730
0.470190
0.494620
0.520040
0.542520
0.561090
0.574780
0.586510
0.596290
0.603130
0.608020
0.608990
0.608990
0.606060
0.602150
0.599220
0.596290
0.593350
0.590420
0.586510
0.581620
0.577710
0.572830
0.566960
0.561090
0.554250
0.545450
0.535680
0.524930
0.515150
0.507330
0.499510
0.492670
0.486800
0.481920
0.478010
0.473120
0.468230
0.463340
0.458460
0.454550
0.450640
0.447700
0.445750
0.443790
0.441840
0.438910
0.437930
0.435970
0.434020
0.431090
0.429130
0.426200
0.423260
0.421310
0.418380
0.416420
0.414470
0.412510
0.409580
0.407620
0.405670
0.403710
0.401760
0.399800
0.396870
0.394920
0.393940
0.392960
0.391980
0.391980
0.390030
0.388070
0.386120
0.384160
0.382210
0.380250
0.378300
0.379280
0.382210
0.387100
0.402740
0.421310
0.436950
0.459430
0.484850
0.511240
0.535680
0.557180
0.573800
0.586510
0.594330
0.599220
0.601170
0.602150
0.602150
0.601170
0.598240
0.594330
0.590420
0.586510
0.581620
0.578690
0.574780
0.570870
0.565980
0.560120
0.552300
0.543500
0.530790
0.519060
0.511240
0.504400
0.498530
0.491690
0.485830
0.479960
0.475070
0.470190
0.466280
0.462370
0.458460
0.453570
0.449660
0.446730
0.443790
0.440860
0.437930
0.435970
0.434020
0.432060
0.431090
0.429130
0.427170
0.425220
0.423260
0.420330
0.418380
0.415440
0.411530
0.407620
0.403710
0.400780
0.396870
0.393940
0.391010
0.388070
0.386120
0.384160
0.382210
0.380250
0.378300
0.377320
0.376340
0.375370
0.374390
0.373410
0.373410
0.372430
0.372430
0.372430
0.373410
0.375370
0.380250
0.389050
0.402740
0.420330
0.438910
0.458460
0.479960
0.503420
0.524930
0.542520
0.555230
0.564030
0.567940
0.569890
0.567940
0.565000
0.561090
0.556210
0.552300
0.548390
0.543500
0.538610
0.532750
0.525900
0.520040
0.514170
0.507330
0.499510
0.491690
0.484850
0.478010
0.471160
0.463340
0.457480
0.451610
0.447700
0.443790
0.440860
0.438910
0.436950
0.435970
0.435000
0.434020
0.433040
0.431090
0.429130
0.424240
0.419350
0.415440
0.412510
0.409580
0.406650
0.404690
0.402740
0.400780
0.399800
0.397850
0.395890
0.393940
0.391980
0.391010
0.389050
0.388070
0.386120
0.384160
0.382210
0.380250
0.379280
0.379280
0.380250
0.382210
0.383190
0.383190
0.382210
0.381230
0.379280
0.377320
0.375370
0.374390
0.374390
0.375370
0.379280
0.387100
0.399800
0.416420
0.437930
0.462370
0.488760
0.513200
0.535680
0.554250
0.568910
0.578690
0.585530
0.589440
0.591400
0.592380
0.592380
0.589440
0.586510
0.582600
0.578690
0.574780
0.570870
0.566960
0.562070
0.556210
0.550340
0.544480
0.538610
0.532750
0.526880
0.520040
0.513200
0.505380
0.498530
0.491690
0.487780
0.483870
0.479960
0.476050
0.471160
0.467250
0.463340
0.459430
0.454550
0.450640
0.446730
0.442820
0.439880
0.437930
0.435970
0.434020
0.432060
0.429130
0.427170
0.425220
0.423260
0.421310
0.419350
0.417400
0.415440
0.413490
0.412510
0.410560
0.408600
0.406650
0.404690
0.402740
0.400780
0.400780
0.400780
0.400780
0.400780
0.401760
0.400780
0.399800
0.397850
0.395890
0.393940
0.391980
0.391010
0.392960
0.397850
0.408600
0.423260
0.438910
0.457480
0.480940
0.505380
0.530790
0.554250
0.574780
0.590420
0.604110
0.611930
0.616810
0.618770
0.618770
0.617790
0.614860
0.612900
0.609970
0.608020
0.606060
0.603130
0.601170
0.598240
0.595310
0.590420
0.584560
0.578690
0.571850
0.563050
0.554250
0.544480
0.534700
0.523950
0.514170
0.506350
0.499510
0.492670
0.486800
0.480940
0.477030
0.473120
0.469210
0.466280
0.462370
0.458460
0.454550
0.450640
0.446730
0.442820
0.438910
0.435000
0.433040
0.431090
0.429130
0.427170
0.425220
0.423260
0.421310
0.419350
0.416420
0.413490
0.410560
0.407620
0.405670
0.403710
0.401760
0.400780
0.398830
0.396870
0.395890
0.397850
0.399800
0.401760
0.402740
0.402740
0.401760
0.400780
0.399800
0.399800
0.400780
0.404690
0.413490
0.427170
0.445750
0.468230
0.492670
0.518080
0.540570
0.563050
0.579670
0.589440
0.598240
0.605080
0.608990
0.610950
0.610950
0.608020
0.604110
0.601170
0.598240
0.594330
0.591400
0.587490
0.582600
0.578690
0.575760
0.571850
0.565000
0.558160
0.550340
0.541540
0.531770
0.521020
0.512220
0.506350
0.500490
0.494620
0.489740
0.485830
0.480940
0.477030
0.472140
0.468230
0.464320
0.460410
0.456500
0.453570
0.450640
0.448680
0.444770
0.441840
0.438910
0.435970
0.432060
0.429130
0.424240
0.420330
0.416420
0.414470
0.412510
0.411530
0.409580
0.406650
0.404690
0.402740
0.400780
0.398830
0.396870
0.394920
0.392960
0.391010
0.390030
0.388070
0.386120
0.384160
0.382210
0.380250
0.378300
0.376340
0.376340
0.378300
0.383190
0.392960
0.403710
0.417400
0.435000
0.455520
0.478010
0.501470
0.522970
0.542520
0.557180
0.568910
0.576740
0.581620
0.584560
0.584560
0.584560
0.582600
0.579670
0.575760
0.572830
0.569890
0.565980
0.562070
0.557180
0.552300
0.546430
0.540570
0.534700
0.526880
0.518080
0.509290
0.500490
0.493650
0.486800
0.480940
0.475070
0.469210
0.464320
0.460410
0.457480
0.453570
0.449660
0.445750
0.441840
0.438910
0.436950
0.434020
0.432060
0.430110
0.427170
0.424240
0.422290
0.419350
0.415440
0.412510
0.409580
0.405670
0.401760
0.398830
0.395890
0.392960
0.391010
0.388070
0.387100
0.385140
0.384160
0.382210
0.380250
0.378300
0.376340
0.375370
0.375370
0.375370
0.376340
0.377320
0.377320
0.376340
0.375370
0.375370
0.375370
0.375370
0.375370
0.377320
0.383190
0.393940
0.408600
0.426200
0.447700
0.467250
0.485830
0.507330
0.527860
0.545450
0.558160
0.567940
0.572830
0.574780
0.573800
0.571850
0.568910
0.565980
0.562070
0.557180
0.552300
0.546430
0.540570
0.533720
0.527860
0.521020
0.514170
0.507330
0.499510
0.492670
0.486800
0.480940
0.475070
0.469210
0.462370
0.456500
0.450640
0.445750
0.441840
0.438910
0.436950
0.434020
0.433040
0.431090
0.430110
0.428150
0.426200
0.424240
0.420330
0.416420
0.412510
0.407620
0.402740
0.398830
0.395890
0.393940
0.391980
0.390030
0.388070
0.386120
0.384160
0.381230
0.378300
0.376340
0.374390
0.373410
0.373410
0.373410
0.374390
0.374390
0.374390
0.374390
0.374390
0.374390
0.375370
0.375370
0.375370
0.375370
0.375370
0.375370
0.376340
0.379280
0.385140
0.394920
0.408600
0.427170
0.450640
0.476050
0.500490
0.524930
0.546430
0.564030
0.574780
0.581620
0.585530
0.587490
0.588470
0.586510
0.585530
0.583580
0.580650
0.577710
0.575760
0.570870
0.565980
0.562070
0.557180
0.552300
0.546430
0.540570
0.533720
0.524930
0.516130
0.508310
0.501470
0.495600
0.490710
0.486800
0.482890
0.479960
0.477030
0.474100
0.471160
0.467250
0.463340
0.459430
0.454550
0.450640
0.446730
0.443790
0.441840
0.440860
0.438910
0.436950
0.434020
0.432060
0.430110
0.428150
0.425220
0.423260
0.421310
0.419350
0.417400
0.416420
0.414470
0.412510
0.410560
0.408600
0.405670
0.404690
0.402740
0.402740
0.401760
0.401760
0.401760
0.401760
0.401760
0.400780
0.398830
0.396870
0.394920
0.393940
0.393940
0.397850
0.406650
0.421310
0.441840
0.463340
0.484850
0.509290
0.534700
0.558160
0.576740
0.590420
0.602150
0.609970
0.614860
0.617790
0.618770
0.618770
0.617790
0.614860
0.611930
0.608990
0.608020
0.605080
0.602150
0.598240
0.594330
0.589440
0.583580
0.577710
0.571850
0.565980
0.557180
0.548390
0.537630
0.527860
0.518080
0.510260
0.504400
0.499510
0.494620
0.489740
0.485830
0.482890
0.478980
0.474100
0.470190
0.466280
0.461390
0.457480
0.452590
0.448680
0.445750
0.443790
0.440860
0.439880
0.437930
0.435970
0.434020
0.432060
0.429130
0.425220
0.422290
0.419350
0.417400
0.415440
0.412510
0.411530
0.409580
0.407620
0.405670
0.403710
0.402740
0.403710
0.404690
0.405670
0.404690
0.403710
0.401760
0.399800
0.397850
0.396870
0.395890
0.397850
0.402740
0.411530
0.425220
0.443790
0.468230
0.494620
0.521020
0.546430
0.565000
0.579670
0.591400
0.600200
0.606060
0.608990
0.609970
0.610950
0.609970
0.608020
0.605080
0.604110
0.602150
0.599220
0.595310
0.591400
0.587490
0.581620
0.575760
0.568910
0.561090
0.553270
0.543500
0.533720
0.523950
0.516130
0.510260
0.503420
0.496580
0.490710
0.483870
0.478010
0.472140
0.467250
0.462370
0.457480
0.452590
0.448680
0.446730
0.445750
0.444770
0.442820
0.440860
0.438910
0.436950
0.434020
0.432060
0.430110
0.428150
0.425220
0.424240
0.423260
0.421310
0.419350
0.417400
0.414470
0.412510
0.409580
0.406650
0.403710
0.401760
0.399800
0.397850
0.395890
0.394920
0.392960
0.392960
0.392960
0.391980
0.390030
0.388070
0.386120
0.385140
0.385140
0.387100
0.391010
0.398830
0.413490
0.431090
0.453570
0.478010
0.503420
0.525900
0.547410
0.565980
0.577710
0.585530
0.589440
0.590420
0.589440
0.586510
0.583580
0.580650
0.577710
0.575760
0.572830
0.569890
0.566960
0.564030
0.561090
0.556210
0.551320
0.544480
0.537630
0.527860
0.518080
0.508310
0.498530
0.489740
0.481920
0.475070
0.469210
0.464320
0.460410
0.456500
0.452590
0.448680
0.444770
0.441840
0.438910
0.435970
0.433040
0.429130
0.424240
0.419350
0.415440
0.413490
0.410560
0.408600
0.405670
0.403710
0.401760
0.398830
0.396870
0.394920
0.391980
0.388070
0.386120
0.384160
0.382210
0.380250
0.378300
0.375370
0.372430
0.370480
0.369500
0.368520
0.368520
0.368520
0.368520
0.368520
0.368520
0.368520
0.368520
0.368520
0.368520
0.370480
0.372430
0.377320
0.386120
0.401760
0.421310
0.443790
0.465300
0.485830
0.506350
0.526880
0.544480
0.560120
0.571850
0.578690
0.581620
0.582600
0.581620
0.578690
0.573800
0.569890
0.565000
0.559140
0.553270
0.547410
0.540570
0.533720
0.526880
0.520040
0.513200
0.504400
0.497560
0.489740
0.481920
0.473120
0.466280
0.459430
0.453570
0.447700
0.442820
0.438910
0.435970
0.434020
0.431090
0.429130
0.428150
0.426200
0.424240
0.422290
0.418380
0.414470
0.410560
0.407620
0.404690
0.401760
0.398830
0.397850
0.395890
0.393940
0.391010
0.388070
0.384160
0.381230
0.378300
0.374390
0.371460
0.369500
0.368520
0.368520
0.368520
0.368520
0.368520
0.368520
0.368520
0.368520
0.368520
0.368520
0.370480
0.371460
0.374390
0.376340
0.378300
0.379280
0.380250
0.382210
0.386120
0.394920
0.406650
0.425220
0.446730
0.471160
0.497560
0.522970
0.546430
0.564030
0.575760
0.585530
0.592380
0.596290
0.596290
0.594330
0.591400
0.587490
0.583580
0.580650
0.578690
0.575760
0.573800
0.570870
0.567940
0.562070
0.556210
0.550340
0.543500
0.536660
0.529810
0.521990
0.514170
0.506350
0.499510
0.492670
0.486800
0.480940
0.476050
0.471160
0.467250
0.463340
0.459430
0.456500
0.452590
0.447700
0.443790
0.440860
0.437930
0.435970
0.433040
0.432060
0.431090
0.430110
0.428150
0.426200
0.424240
0.422290
0.419350
0.418380
0.416420
0.414470
0.412510
0.410560
0.407620
0.404690
0.401760
0.398830
0.396870
0.394920
0.391980
0.391010
0.390030
0.390030
0.390030
0.390030
0.390030
0.389050
0.387100
0.385140
0.384160
0.384160
0.387100
0.393940
0.403710
0.417400
0.437930
0.463340
0.491690
0.521020
0.547410
0.568910
0.586510
0.599220
0.608990
0.614860
0.618770
0.619750
0.620720
0.620720
0.617790
0.614860
0.610950
0.606060
0.603130
0.600200
0.597260
0.592380
0.589440
0.585530
0.580650
0.574780
0.568910
0.561090
0.552300
0.541540
0.530790
0.520040
0.511240
0.503420
0.497560
0.492670
0.488760
0.484850
0.479960
0.476050
0.473120
0.468230
0.464320
0.460410
0.455520
0.451610
0.447700
0.443790
0.441840
0.440860
0.438910
0.436950
0.434020
0.432060
0.429130
0.426200
0.423260
0.421310
0.418380
0.416420
0.414470
0.413490
0.411530
0.409580
0.407620
0.404690
0.402740
0.400780
0.400780
0.399800
0.399800
0.398830
0.398830
0.398830
0.396870
0.395890
0.395890
0.396870
0.400780
0.407620
0.420330
0.436950
0.459430
0.484850
0.512220
0.534700
0.555230
0.574780
0.591400
0.604110
0.611930
0.615840
0.617790
0.617790
0.616810
0.614860
0.611930
0.608020
0.604110
0.599220
0.595310
0.590420
0.586510
0.583580
0.580650
0.577710
0.573800
0.567940
0.561090
0.551320
0.542520
0.533720
0.523950
0.514170
0.505380
0.496580
0.489740
0.483870
0.478980
0.474100
0.469210
0.464320
0.459430
0.455520
0.450640
0.446730
0.443790
0.441840
0.438910
0.436950
0.434020
0.432060
0.430110
0.428150
0.425220
0.423260
0.422290
0.420330
0.417400
0.414470
0.412510
0.409580
0.407620
0.404690
0.402740
0.400780
0.398830
0.397850
0.397850
0.397850
0.397850
0.397850
0.397850
0.396870
0.394920
0.392960
0.391010
0.389050
0.387100
0.385140
0.383190
0.385140
0.390030
0.400780
0.416420
0.437930
0.463340
0.491690
0.519060
0.544480
0.565000
0.580650
0.590420
0.595310
0.597260
0.596290
0.593350
0.589440
0.586510
0.583580
0.580650
0.578690
0.576740
0.573800
0.569890
0.565980
0.561090
0.556210
0.550340
0.544480
0.537630
0.528840
0.519060
0.509290
0.499510
0.489740
0.480940
0.472140
0.465300
0.459430
0.454550
0.450640
0.447700
0.446730
0.444770
0.442820
0.440860
0.438910
0.436950
0.434020
0.433040
0.431090
0.429130
0.427170
0.422290
0.417400
0.413490
0.408600
0.404690
0.401760
0.398830
0.395890
0.394920
0.392960
0.389050
0.385140
0.381230
0.378300
0.376340
0.375370
0.375370
0.375370
0.375370
0.375370
0.376340
0.378300
0.379280
0.378300
0.377320
0.376340
0.375370
0.375370
0.375370
0.375370
0.378300
0.385140
0.396870
0.410560
0.427170
0.447700
0.472140
0.497560
0.521020
0.541540
0.559140
0.571850
0.578690
0.582600
0.582600
0.581620
0.579670
0.577710
0.573800
0.569890
0.565000
0.559140
0.553270
0.546430
0.540570
0.534700
0.527860
0.520040
0.513200
0.506350
0.498530
0.489740
0.481920
0.475070
0.468230
0.462370
0.456500
0.451610
0.447700
0.444770
0.441840
0.438910
0.436950
0.435000
0.433040
0.430110
0.428150
0.426200
0.423260
0.421310
0.419350
0.416420
0.414470
0.411530
0.409580
0.406650
0.402740
0.398830
0.394920
0.390030
0.386120
0.383190
0.379280
0.377320
0.376340
0.375370
0.375370
0.375370
0.375370
0.375370
0.375370
0.375370
0.375370
0.375370
0.375370
0.375370
0.375370
0.375370
0.375370
0.375370
0.377320
0.379280
0.384160
0.392960
0.407620
0.427170
0.450640
0.476050
0.502440
0.526880
0.545450
0.560120
0.572830
0.581620
0.587490
0.590420
0.591400
0.589440
0.587490
0.584560
0.582600
0.580650
0.577710
0.575760
0.573800
0.570870
0.566960
0.562070
0.556210
0.550340
0.543500
0.535680
0.527860
0.520040
0.512220
0.506350
0.500490
0.495600
0.490710
0.485830
0.481920
0.477030
0.472140
0.468230
0.462370
0.457480
0.452590
0.448680
0.445750
0.443790
0.441840
0.439880
0.438910
0.436950
0.435000
0.433040
0.430110
0.428150
0.426200
0.425220
0.424240
0.424240
0.425220
0.424240
0.423260
0.421310
0.419350
0.416420
0.414470
0.412510
0.410560
0.408600
0.408600
0.408600
0.409580
0.409580
0.408600
0.406650
0.404690
0.402740
0.400780
0.399800
0.400780
0.403710
0.411530
0.422290
0.435970
0.455520
0.478980
0.505380
0.533720
0.559140
0.581620
0.598240
0.610950
0.619750
0.625610
0.628540
0.629520
0.628540
0.626590
0.623660
0.620720
0.617790
0.615840
0.613880
0.611930
0.608990
0.606060
0.601170
0.596290
0.590420
0.584560
0.577710
0.569890
0.560120
0.550340
0.538610
0.528840
0.519060
0.509290
0.501470
0.494620
0.489740
0.485830
0.481920
0.478010
0.475070
0.473120
0.469210
0.465300
0.462370
0.458460
0.453570
0.449660
0.447700
0.445750
0.443790
0.441840
0.439880
0.436950
0.434020
0.431090
0.428150
0.426200
0.423260
0.421310
0.419350
0.417400
0.416420
0.414470
0.412510
0.409580
0.407620
0.405670
0.403710
0.402740
0.400780
0.399800
0.397850
0.396870
0.396870
0.395890
0.394920
0.395890
0.397850
0.402740
0.412510
0.427170
0.446730
0.470190
0.496580
0.523950
0.546430
0.565000
0.582600
0.597260
0.608020
0.615840
0.620720
0.621700
0.620720
0.618770
0.614860
0.610950
0.606060
0.602150
0.597260
0.594330
0.591400
0.588470
0.585530
0.581620
0.576740
0.570870
0.563050
0.553270
0.543500
0.533720
0.524930
0.514170
0.504400
0.494620
0.486800
0.479960
0.475070
0.470190
0.466280
0.462370
0.458460
0.454550
0.451610
0.447700
0.444770
0.442820
0.439880
0.437930
0.435970
0.433040
0.431090
0.429130
0.426200
0.424240
0.422290
0.420330
0.417400
0.416420
0.414470
0.413490
0.411530
0.408600
0.406650
0.404690
0.402740
0.399800
0.398830
0.397850
0.396870
0.395890
0.394920
0.394920
0.394920
0.393940
0.392960
0.391010
0.389050
0.387100
0.386120
0.387100
0.391010
0.399800
0.414470
0.434020
0.458460
0.484850
0.511240
0.535680
0.557180
0.573800
0.585530
0.593350
0.597260
0.598240
0.597260
0.594330
0.590420
0.586510
0.582600
0.579670
0.575760
0.571850
0.567940
0.564030
0.560120
0.555230
0.549360
0.543500
0.536660
0.529810
0.521020
0.512220
0.503420
0.494620
0.484850
0.476050
0.469210
0.464320
0.459430
0.454550
0.451610
0.448680
0.446730
0.444770
0.441840
0.439880
0.437930
0.435970
0.434020
0.431090
0.428150
0.424240
0.420330
0.416420
0.412510
0.408600
0.405670
0.402740
0.399800
0.397850
0.395890
0.393940
0.392960
0.391980
0.391010
0.389050
0.385140
0.382210
0.379280
0.377320
0.376340
0.375370
0.375370
0.376340
0.376340
0.376340
0.375370
0.375370
0.375370
0.375370
0.375370
0.375370
0.376340
0.379280
0.383190
0.391980
0.403710
0.418380
0.436950
0.460410
0.483870
0.508310
0.529810
0.548390
0.563050
0.571850
0.576740
0.577710
0.577710
0.575760
0.572830
0.568910
0.564030
0.559140
0.555230
0.550340
0.545450
0.540570
0.534700
0.527860
0.521020
0.514170
0.507330
0.499510
0.491690
0.482890
0.474100
0.467250
0.462370
0.457480
0.452590
0.448680
0.444770
0.442820
0.441840
0.439880
0.437930
0.435000
0.433040
0.431090
0.429130
0.426200
0.424240
0.422290
0.420330
0.417400
0.414470
0.411530
0.408600
0.404690
0.400780
0.396870
0.393940
0.390030
0.387100
0.383190
0.381230
0.378300
0.376340
0.375370
0.375370
0.375370
0.375370
0.375370
0.375370
0.376340
0.378300
0.379280
0.379280
0.379280
0.378300
0.378300
0.378300
0.378300
0.379280
0.381230
0.386120
0.393940
0.405670
0.422290
0.442820
0.466280
0.491690
0.513200
0.532750
0.552300
0.567940
0.577710
0.583580
0.585530
0.585530
0.583580
0.581620
0.579670
0.578690
0.577710
0.577710
0.577710
0.577710
0.577710
0.575760
0.573800
0.569890
0.565000
0.557180
0.548390
0.538610
0.527860
0.519060
0.511240
0.503420
0.496580
0.490710
0.485830
0.480940
0.476050
0.472140
0.470190
0.469210
0.466280
0.462370
0.459430
0.455520
0.452590
0.451610
0.450640
0.449660
0.448680
0.447700
0.446730
0.444770
0.441840
0.439880
0.437930
0.436950
0.435970
0.434020
0.432060
0.430110
0.427170
0.425220
0.422290
0.421310
0.421310
0.420330
0.419350
0.418380
0.417400
0.415440
0.414470
0.415440
0.416420
0.417400
0.417400
0.416420
0.414470
0.412510
0.410560
0.409580
0.410560
0.415440
0.426200
0.442820
0.466280
0.494620
0.524930
0.555230
0.583580
0.607040
0.626590
0.640270
0.648090
0.654940
0.657870
0.659820
0.659820
0.658850
0.654940
0.651030
0.648090
0.645160
0.641250
0.636360
0.632450
0.627570
0.622680
0.616810
0.610950
0.604110
0.596290
0.589440
0.581620
0.572830
0.562070
0.551320
0.540570
0.531770
0.521990
0.515150
0.508310
0.502440
0.497560
0.492670
0.487780
0.484850
0.480940
0.477030
0.472140
0.468230
0.464320
0.460410
0.456500
0.451610
0.446730
0.442820
0.437930
0.434020
0.431090
0.428150
0.425220
0.423260
0.422290
0.420330
0.417400
0.415440
0.412510
0.410560
0.407620
0.406650
0.404690
0.403710
0.403710
0.402740
0.402740
0.402740
0.402740
0.402740
0.401760
0.400780
0.399800
0.398830
0.399800
0.402740
0.409580
0.422290
0.436950
0.454550
0.477030
0.503420
0.530790
0.557180
0.582600
0.610950
0.624630
0.634410
0.642230
0.645160
0.645160
0.644180
0.638320
0.634410
0.629520
0.622680
0.617790
0.611930
0.606060
0.600200
0.593350
0.587490
0.580650
0.573800
0.566960
0.560120
0.551320
0.541540
0.531770
0.521990
0.514170
0.507330
0.500490
0.495600
0.490710
0.486800
0.481920
0.478010
0.475070
0.472140
0.469210
0.464320
0.460410
0.456500
0.452590
0.449660
0.447700
0.446730
0.444770
0.441840
0.439880
0.436950
0.435000
0.432060
0.430110
0.427170
0.422290
0.417400
0.412510
0.408600
0.405670
0.403710
0.400780
0.398830
0.397850
0.397850
0.397850
0.397850
0.397850
0.396870
0.394920
0.393940
0.391980
0.390030
0.388070
0.386120
0.384160
0.384160
0.389050
0.398830
0.415440
0.436950
0.465300
0.491690
0.516130
0.541540
0.565980
0.586510
0.601170
0.610950
0.616810
0.618770
0.616810
0.613880
0.608990
0.604110
0.601170
0.598240
0.594330
0.591400
0.587490
0.582600
0.573800
0.567940
0.560120
0.547410
0.538610
0.529810
0.521020
0.511240
0.502440
0.493650
0.486800
0.480940
0.476050
0.470190
0.465300
0.460410
0.456500
0.453570
0.451610
0.449660
0.443790
0.435970
0.431090
0.427170
0.423260
0.420330
0.416420
0.413490
0.411530
0.409580
0.408600
0.406650
0.404690
0.401760
0.399800
0.396870
0.393940
0.391010
0.388070
0.384160
0.380250
0.376340
0.373410
0.371460
0.369500
0.369500
0.370480
0.372430
0.373410
0.373410
0.372430
0.370480
0.369500
0.368520
0.368520
0.368520
0.368520
0.368520
0.371460
0.379280
0.391010
0.407620
0.428150
0.451610
0.476050
0.499510
0.520040
0.534700
0.546430
0.556210
0.564030
0.567940
0.568910
0.568910
0.566960
0.564030
0.560120
0.555230
0.550340
0.544480
0.539590
0.532750
0.526880
0.520040
0.514170
0.506350
0.498530
0.490710
0.482890
0.476050
0.469210
0.463340
0.457480
0.453570
0.448680
0.443790
0.438910
0.435970
0.433040
0.432060
0.430110
0.428150
0.426200
0.424240
0.422290
0.420330
0.418380
0.415440
0.411530
0.407620
0.404690
0.401760
0.398830
0.394920
0.391010
0.388070
0.385140
0.383190
0.383190
0.384160
0.384160
0.384160
0.386120
0.386120
0.386120
0.386120
0.385140
0.384160
0.384160
0.384160
0.383190
0.381230
0.380250
0.378300
0.375370
0.373410
0.371460
0.369500
0.369500
0.369500
0.371460
0.377320
0.385140
0.395890
0.414470
0.436950
0.463340
0.489740
0.515150
0.537630
0.556210
0.569890
0.577710
0.582600
0.584560
0.584560
0.584560
0.583580
0.583580
0.582600
0.579670
0.575760
0.573800
0.570870
0.568910
0.566960
0.563050
0.559140
0.553270
0.544480
0.534700
0.523950
0.514170
0.504400
0.496580
0.490710
0.484850
0.479960
0.476050
0.472140
0.470190
0.468230
0.465300
0.461390
0.457480
0.453570
0.448680
0.444770
0.441840
0.438910
0.437930
0.436950
0.435970
0.435000
0.433040
0.431090
0.428150
0.426200
0.424240
0.422290
0.419350
0.417400
0.415440
0.412510
0.410560
0.407620
0.403710
0.400780
0.397850
0.395890
0.394920
0.394920
0.396870
0.398830
0.401760
0.403710
0.406650
0.407620
0.407620
0.405670
0.403710
0.402740
0.402740
0.404690
0.410560
0.421310
0.436950
0.458460
0.483870
0.507330
0.528840
0.553270
0.573800
0.591400
0.605080
0.614860
0.621700
0.627570
0.630500
0.632450
0.632450
0.630500
0.627570
0.625610
0.623660
0.621700
0.620720
0.619750
0.617790
0.614860
0.610950
0.606060
0.598240
0.588470
0.578690
0.568910
0.559140
0.548390
0.537630
0.526880
0.517110
0.508310
0.501470
0.496580
0.491690
0.486800
0.482890
0.478980
0.475070
0.471160
0.466280
0.462370
0.457480
0.453570
0.448680
0.444770
0.441840
0.439880
0.437930
0.437930
0.436950
0.435000
0.434020
0.432060
0.430110
0.427170
0.425220
0.423260
0.421310
0.419350
0.417400
0.415440
0.414470
0.413490
0.414470
0.415440
0.415440
0.415440
0.414470
0.414470
0.413490
0.412510
0.412510
0.411530
0.411530
0.412510
0.414470
0.418380
0.425220
0.436950
0.452590
0.472140
0.494620
0.519060
0.542520
0.564030
0.579670
0.591400
0.601170
0.608990
0.612900
0.613880
0.613880
0.612900
0.610950
0.607040
0.604110
0.600200
0.595310
0.592380
0.589440
0.586510
0.582600
0.578690
0.574780
0.570870
0.565000
0.557180
0.548390
0.538610
0.527860
0.519060
0.512220
0.506350
0.501470
0.496580
0.492670
0.488760
0.483870
0.479960
0.476050
0.472140
0.467250
0.463340
0.459430
0.456500
0.452590
0.448680
0.444770
0.441840
0.438910
0.437930
0.435970
0.434020
0.432060
0.430110
0.427170
0.425220
0.423260
0.419350
0.416420
0.413490
0.411530
0.409580
0.406650
0.404690
0.402740
0.400780
0.398830
0.396870
0.395890
0.393940
0.391980
0.390030
0.388070
0.386120
0.384160
0.382210
0.380250
0.378300
0.378300
0.379280
0.383190
0.391980
0.404690
0.423260
0.446730
0.472140
0.497560
0.522970
0.544480
0.561090
0.573800
0.582600
0.586510
0.588470
0.588470
0.588470
0.587490
0.586510
0.584560
0.581620
0.578690
0.574780
0.571850
0.567940
0.563050
0.558160
0.552300
0.546430
0.540570
0.532750
0.524930
0.516130
0.507330
0.498530
0.490710
0.482890
0.477030
0.472140
0.468230
0.463340
0.459430
0.455520
0.451610
0.446730
0.443790
0.440860
0.437930
0.435970
0.434020
0.432060
0.430110
0.428150
0.426200
0.423260
0.421310
0.419350
0.417400
0.415440
0.413490
0.409580
0.405670
0.402740
0.399800
0.396870
0.394920
0.392960
0.390030
0.388070
0.386120
0.384160
0.383190
0.382210
0.383190
0.385140
0.386120
0.387100
0.387100
0.387100
0.385140
0.383190
0.380250
0.377320
0.376340
0.375370
0.376340
0.380250
0.387100
0.396870
0.413490
0.434020
0.458460
0.482890
0.506350
0.527860
0.544480
0.557180
0.563050
0.565980
0.565980
0.565000
0.563050
0.561090
0.559140
0.556210
0.553270
0.548390
0.542520
0.536660
0.530790
0.523950
0.518080
0.512220
0.507330
0.500490
0.493650
0.487780
0.480940
0.474100
0.467250
0.461390
0.456500
0.451610
0.446730
0.443790
0.440860
0.439880
0.437930
0.435970
0.434020
0.432060
0.430110
0.427170
0.425220
0.423260
0.421310
0.419350
0.417400
0.416420
0.414470
0.412510
0.411530
0.409580
0.407620
0.405670
0.403710
0.401760
0.400780
0.399800
0.398830
0.397850
0.396870
0.395890
0.394920
0.392960
0.391010
0.390030
0.390030
0.389050
0.389050
0.388070
0.387100
0.386120
0.385140
0.384160
0.382210
0.381230
0.382210
0.387100
0.395890
0.410560
0.430110
0.453570
0.479960
0.507330
0.529810
0.549360
0.566960
0.582600
0.594330
0.603130
0.608990
0.610950
0.609970
0.608020
0.605080
0.601170
0.597260
0.592380
0.588470
0.584560
0.579670
0.575760
0.572830
0.567940
0.563050
0.557180
0.551320
0.544480
0.537630
0.528840
0.521990
0.515150
0.509290
0.503420
0.499510
0.494620
0.490710
0.488760
0.485830
0.482890
0.479960
0.477030
0.474100
0.470190
0.466280
0.462370
0.458460
0.453570
0.449660
0.445750
0.441840
0.436950
0.433040
0.429130
0.426200
0.425220
0.423260
0.420330
0.418380
0.416420
0.414470
0.412510
0.410560
0.409580
0.408600
0.409580
0.410560
0.411530
0.411530
0.410560
0.409580
0.408600
0.407620
0.405670
0.403710
0.403710
0.402740
0.401760
0.402740
0.404690
0.408600
0.417400
0.431090
0.448680
0.471160
0.496580
0.522970
0.548390
0.570870
0.589440
0.604110
0.613880
0.620720
0.625610
0.628540
0.629520
0.630500
0.630500
0.628540
0.625610
0.623660
0.620720
0.618770
0.616810
0.612900
0.608990
0.605080
0.601170
0.594330
0.586510
0.577710
0.567940
0.557180
0.546430
0.535680
0.524930
0.516130
0.509290
0.504400
0.499510
0.494620
0.490710
0.486800
0.483870
0.480940
0.478980
0.476050
0.472140
0.469210
0.465300
0.461390
0.457480
0.453570
0.447700
0.443790
0.439880
0.436950
0.434020
0.432060
0.429130
0.427170
0.425220
0.424240
0.423260
0.422290
0.420330
0.419350
0.418380
0.417400
0.415440
0.414470
0.414470
0.414470
0.415440
0.415440
0.416420
0.416420
0.415440
0.413490
0.411530
0.409580
0.408600
0.408600
0.412510
0.421310
0.435970
0.450640
0.469210
0.491690
0.517110
0.542520
0.564030
0.582600
0.597260
0.608020
0.615840
0.620720
0.622680
0.622680
0.621700
0.618770
0.615840
0.611930
0.607040
0.603130
0.599220
0.595310
0.590420
0.586510
0.581620
0.577710
0.573800
0.568910
0.563050
0.555230
0.544480
0.533720
0.521990
0.511240
0.501470
0.492670
0.484850
0.478980
0.474100
0.471160
0.470190
0.468230
0.465300
0.461390
0.457480
0.453570
0.449660
0.445750
0.440860
0.435970
0.431090
0.427170
0.424240
0.419350
0.415440
0.411530
0.408600
0.406650
0.403710
0.401760
0.399800
0.395890
0.391980
0.390030
0.388070
0.386120
0.384160
0.382210
0.380250
0.378300
0.375370
0.373410
0.372430
0.371460
0.370480
0.370480
0.370480
0.370480
0.370480
0.370480
0.371460
0.373410
0.377320
0.385140
0.397850
0.415440
0.437930
0.462370
0.485830
0.505380
0.526880
0.544480
0.559140
0.568910
0.574780
0.576740
0.576740
0.573800
0.571850
0.568910
0.566960
0.564030
0.561090
0.556210
0.550340
0.544480
0.538610
0.532750
0.525900
0.519060
0.511240
0.503420
0.495600
0.487780
0.480940
0.473120
0.466280
0.459430
0.454550
0.449660
0.445750
0.441840
0.438910
0.435970
0.433040
0.431090
0.429130
0.427170
0.424240
0.422290
0.420330
0.418380
0.416420
0.413490
0.411530
0.409580
0.407620
0.405670
0.403710
0.401760
0.398830
0.393940
0.390030
0.386120
0.383190
0.380250
0.378300
0.376340
0.373410
0.372430
0.371460
0.370480
0.370480
0.370480
0.371460
0.371460
0.371460
0.371460
0.370480
0.370480
0.370480
0.369500
0.368520
0.369500
0.370480
0.375370
0.382210
0.394920
0.411530
0.433040
0.459430
0.485830
0.513200
0.537630
0.558160
0.572830
0.582600
0.588470
0.591400
0.591400
0.588470
0.585530
0.580650
0.574780
0.570870
0.567940
0.564030
0.560120
0.555230
0.550340
0.544480
0.538610
0.532750
0.525900
0.519060
0.510260
0.501470
0.494620
0.487780
0.481920
0.478010
0.474100
0.470190
0.466280
0.464320
0.462370
0.460410
0.457480
0.454550
0.450640
0.446730
0.441840
0.438910
0.436950
0.435000
0.433040
0.431090
0.429130
0.426200
0.424240
0.422290
0.420330
0.418380
0.416420
0.413490
0.412510
0.411530
0.409580
0.407620
0.405670
0.403710
0.402740
0.401760
0.400780
0.399800
0.399800
0.400780
0.401760
0.403710
0.405670
0.406650
0.406650
0.405670
0.404690
0.402740
0.401760
0.403710
0.406650
0.414470
0.427170
0.440860
0.457480
0.478010
0.500490
0.522970
0.544480
0.562070
0.576740
0.587490
0.595310
0.600200
0.603130
0.604110
0.604110
0.603130
0.602150
0.600200
0.598240
0.597260
0.594330
0.590420
0.586510
0.582600
0.576740
0.570870
0.565000
0.559140
0.553270
0.547410
0.540570
0.533720
0.524930
0.516130
0.508310
0.502440
0.496580
0.491690
0.486800
0.482890
0.479960
0.476050
0.472140
0.468230
0.464320
0.461390
0.457480
0.452590
0.448680
0.444770
0.440860
0.438910
0.436950
0.435000
0.433040
0.431090
0.429130
0.426200
0.424240
0.422290
0.418380
0.415440
0.412510
0.409580
0.408600
0.406650
0.404690
0.402740
0.403710
0.406650
0.408600
0.409580
0.409580
0.409580
0.408600
0.406650
0.405670
0.403710
0.402740
0.400780
0.401760
0.404690
0.412510
0.425220
0.443790
0.467250
0.493650
0.521990
0.548390
0.569890
0.584560
0.598240
0.608990
0.616810
0.622680
0.625610
0.627570
0.628540
0.627570
0.625610
0.621700
0.617790
0.613880
0.608990
0.605080
0.600200
0.596290
0.591400
0.586510
0.580650
0.573800
0.566960
0.558160
0.548390
0.539590
0.529810
0.520040
0.512220
0.505380
0.498530
0.492670
0.486800
0.481920
0.478010
0.473120
0.468230
0.464320
0.460410
0.456500
0.452590
0.448680
0.445750
0.442820
0.439880
0.435970
0.432060
0.428150
0.425220
0.423260
0.422290
0.420330
0.418380
0.416420
0.413490
0.411530
0.409580
0.407620
0.404690
0.402740
0.400780
0.397850
0.396870
0.395890
0.394920
0.394920
0.393940
0.393940
0.393940
0.393940
0.392960
0.391010
0.389050
0.388070
0.389050
0.391010
0.396870
0.406650
0.422290
0.441840
0.465300
0.490710
0.516130
0.539590
0.560120
0.575760
0.586510
0.592380
0.594330
0.594330
0.591400
0.588470
0.585530
0.583580
0.581620
0.578690
0.575760
0.572830
0.567940
0.563050
0.558160
0.553270
0.547410
0.540570
0.533720
0.526880
0.519060
0.510260
0.501470
0.492670
0.483870
0.476050
0.470190
0.466280
0.461390
0.457480
0.453570
0.450640
0.448680
0.446730
0.444770
0.442820
0.440860
0.437930
0.436950
0.435000
0.434020
0.431090
0.427170
0.423260
0.420330
0.417400
0.414470
0.411530
0.409580
0.407620
0.404690
0.403710
0.401760
0.399800
0.397850
0.395890
0.393940
0.391010
0.389050
0.387100
0.385140
0.382210
0.380250
0.378300
0.378300
0.377320
0.377320
0.377320
0.377320
0.377320
0.377320
0.377320
0.380250
0.386120
0.397850
0.414470
0.433040
0.451610
0.475070
0.500490
0.522970
0.543500
0.559140
0.570870
0.577710
0.581620
0.582600
0.583580
0.582600
0.580650
0.577710
0.574780
0.571850
0.567940
0.564030
0.558160
0.551320
0.545450
0.537630
0.528840
0.520040
0.512220
0.504400
0.496580
0.488760
0.480940
0.475070
0.469210
0.464320
0.459430
0.455520
0.451610
0.447700
0.445750
0.444770
0.442820
0.440860
0.437930
0.435970
0.434020
0.432060
0.429130
0.427170
0.423260
0.420330
0.416420
0.413490
0.411530
0.408600
0.405670
0.402740
0.399800
0.396870
0.393940
0.391980
0.389050
0.387100
0.385140
0.385140
0.384160
0.383190
0.383190
0.384160
0.385140
0.385140
0.386120
0.385140
0.384160
0.382210
0.379280
0.377320
0.376340
0.375370
0.375370
0.378300
0.384160
0.395890
0.413490
0.435000
0.459430
0.484850
0.510260
0.532750
0.550340
0.564030
0.574780
0.581620
0.585530
0.586510
0.584560
0.581620
0.577710
0.575760
0.572830
0.570870
0.568910
0.566960
0.565980
0.564030
0.561090
0.558160
0.552300
0.544480
0.535680
0.525900
0.516130
0.508310
0.501470
0.496580
0.491690
0.487780
0.482890
0.478980
0.474100
0.470190
0.465300
0.461390
0.457480
0.453570
0.450640
0.447700
0.445750
0.443790
0.441840
0.439880
0.437930
0.435000
0.433040
0.431090
0.429130
0.426200
0.423260
0.420330
0.418380
0.417400
0.415440
0.413490
0.411530
0.408600
0.406650
0.404690
0.402740
0.399800
0.397850
0.396870
0.396870
0.397850
0.397850
0.398830
0.397850
0.397850
0.396870
0.395890
0.396870
0.398830
0.401760
0.408600
0.419350
0.433040
0.449660
0.471160
0.495600
0.521020
0.545450
0.566960
0.585530
0.599220
0.610950
0.617790
0.622680
0.624630
0.624630
0.623660
0.623660
0.622680
0.622680
0.620720
0.617790
0.614860
0.610950
0.607040
0.602150
0.597260
0.591400
0.585530
0.578690
0.569890
0.560120
0.549360
0.538610
0.527860
0.518080
0.508310
0.500490
0.493650
0.488760
0.484850
0.480940
0.476050
0.472140
0.469210
0.466280
0.463340
0.460410
0.456500
0.451610
0.447700
0.444770
0.442820
0.441840
0.438910
0.435970
0.434020
0.431090
0.429130
0.427170
0.423260
0.418380
0.413490
0.408600
0.405670
0.403710
0.402740
0.402740
0.403710
0.404690
0.406650
0.408600
0.408600
0.407620
0.406650
0.404690
0.401760
0.400780
0.398830
0.397850
0.395890
0.395890
0.397850
0.403710
0.416420
0.433040
0.455520
0.480940
0.508310
0.531770
0.552300
0.570870
0.587490
0.599220
0.607040
0.610950
0.612900
0.610950
0.608020
0.604110
0.600200
0.597260
0.594330
0.590420
0.586510
0.582600
0.579670
0.577710
0.574780
0.571850
0.567940
0.563050
0.555230
0.546430
0.537630
0.528840
0.519060
0.510260
0.500490
0.492670
0.486800
0.479960
0.475070
0.470190
0.465300
0.461390
0.456500
0.452590
0.448680
0.445750
0.442820
0.439880
0.437930
0.435970
0.433040
0.431090
0.428150
0.424240
0.419350
0.416420
0.413490
0.409580
0.405670
0.402740
0.400780
0.397850
0.395890
0.393940
0.391010
0.389050
0.387100
0.385140
0.383190
0.381230
0.380250
0.378300
0.377320
0.377320
0.377320
0.377320
0.376340
0.375370
0.375370
0.375370
0.376340
0.379280
0.386120
0.397850
0.414470
0.435000
0.458460
0.482890
0.507330
0.529810
0.548390
0.563050
0.571850
0.576740
0.578690
0.579670
0.579670
0.578690
0.576740
0.574780
0.572830
0.569890
0.566960
0.563050
0.559140
0.554250
0.549360
0.543500
0.537630
0.531770
0.523950
0.515150
0.506350
0.497560
0.488760
0.480940
0.475070
0.470190
0.466280
0.462370
0.457480
0.453570
0.448680
0.445750
0.442820
0.440860
0.438910
0.436950
0.435000
0.433040
0.431090
0.430110
0.428150
0.425220
0.421310
0.417400
0.414470
0.411530
0.408600
0.406650
0.403710
0.400780
0.397850
0.394920
0.391980
0.389050
0.387100
0.385140
0.382210
0.381230
0.380250
0.380250
0.380250
0.379280
0.377320
0.376340
0.375370
0.375370
0.375370
0.375370
0.375370
0.375370
0.375370
0.377320
0.381230
0.390030
0.402740
0.417400
0.434020
0.456500
0.479960
0.502440
0.522970
0.540570
0.553270
0.563050
0.568910
0.570870
0.570870
0.568910
0.565000
0.561090
0.556210
0.551320
0.546430
0.541540
0.536660
0.530790
0.524930
0.519060
0.513200
0.509290
0.504400
0.500490
0.493650
0.486800
0.480940
0.475070
0.469210
0.465300
0.460410
0.455520
0.451610
0.447700
0.444770
0.443790
0.443790
0.442820
0.440860
0.438910
0.436950
0.435000
0.432060
0.428150
0.424240
0.421310
0.418380
0.416420
0.414470
0.412510
0.410560
0.408600
0.407620
0.407620
0.406650
0.405670
0.405670
0.403710
0.402740
0.401760
0.401760
0.401760
0.401760
0.402740
0.402740
0.402740
0.401760
0.399800
0.398830
0.396870
0.394920
0.393940
0.393940
0.394920
0.399800
0.407620
0.420330
0.437930
0.459430
0.484850
0.510260
0.534700
0.558160
0.576740
0.590420
0.599220
0.603130
0.606060
0.608020
0.608020
0.607040
0.605080
0.603130
0.600200
0.598240
0.596290
0.593350
0.589440
0.584560
0.579670
0.574780
0.567940
0.561090
0.552300
0.543500
0.532750
0.522970
0.513200
0.505380
0.498530
0.492670
0.487780
0.482890
0.478010
0.473120
0.469210
0.465300
0.461390
0.458460
0.454550
0.451610
0.447700
0.445750
0.443790
0.441840
0.439880
0.436950
0.435000
0.433040
0.431090
0.428150
0.427170
0.425220
0.424240
0.422290
0.421310
0.420330
0.419350
0.418380
0.417400
0.415440
0.414470
0.413490
0.412510
0.413490
0.413490
0.413490
0.414470
0.415440
0.416420
0.416420
0.417400
0.417400
0.418380
0.420330
0.423260
0.430110
0.439880
0.454550
0.470190
0.488760
0.512220
0.537630
0.561090
0.583580
0.601170
0.614860
0.623660
0.628540
0.630500
0.628540
0.623660
0.617790
0.612900
0.609970
0.606060
0.603130
0.600200
0.596290
0.592380
0.588470
0.584560
0.580650
0.575760
0.570870
0.564030
0.556210
0.546430
0.536660
0.525900
0.517110
0.509290
0.502440
0.496580
0.491690
0.487780
0.483870
0.481920
0.480940
0.478980
0.477030
0.473120
0.469210
0.465300
0.461390
0.456500
0.451610
0.446730
0.443790
0.440860
0.438910
0.436950
0.435000
0.433040
0.431090
0.429130
0.427170
0.424240
0.422290
0.420330
0.418380
0.416420
0.414470
0.413490
0.411530
0.409580
0.407620
0.406650
0.405670
0.404690
0.405670
0.405670
0.404690
0.402740
0.401760
0.400780
0.399800
0.399800
0.403710
0.412510
0.426200
0.445750
0.469210
0.494620
0.520040
0.544480
0.565000
0.580650
0.591400
0.599220
0.605080
0.608020
0.608020
0.607040
0.604110
0.601170
0.597260
0.593350
0.588470
0.584560
0.580650
0.576740
0.573800
0.570870
0.566960
0.561090
0.555230
0.549360
0.541540
0.532750
0.522970
0.513200
0.505380
0.498530
0.492670
0.487780
0.482890
0.478980
0.474100
0.470190
0.465300
0.459430
0.452590
0.447700
0.442820
0.439880
0.437930
0.435000
0.432060
0.429130
0.427170
0.425220
0.422290
0.420330
0.416420
0.412510
0.407620
0.404690
0.401760
0.399800
0.396870
0.394920
0.392960
0.391010
0.389050
0.386120
0.384160
0.383190
0.383190
0.383190
0.383190
0.383190
0.381230
0.380250
0.378300
0.376340
0.375370
0.375370
0.375370
0.377320
0.382210
0.391010
0.402740
0.416420
0.435970
0.458460
0.482890
0.506350
0.528840
0.547410
0.560120
0.568910
0.573800
0.574780
0.573800
0.572830
0.570870
0.568910
0.566960
0.564030
0.562070
0.560120
0.558160
0.555230
0.550340
0.544480
0.537630
0.531770
0.524930
0.518080
0.510260
0.501470
0.493650
0.484850
0.477030
0.470190
0.465300
0.460410
0.455520
0.451610
0.448680
0.444770
0.441840
0.439880
0.437930
0.435000
0.433040
0.431090
0.429130
0.427170
0.424240
0.423260
0.422290
0.420330
0.418380
0.416420
0.414470
0.411530
0.409580
0.407620
0.404690
0.401760
0.397850
0.393940
0.391980
0.390030
0.388070
0.386120
0.384160
0.382210
0.381230
0.380250
0.379280
0.379280
0.379280
0.378300
0.378300
0.377320
0.376340
0.375370
0.375370
0.375370
0.377320
0.381230
0.389050
0.402740
0.420330
0.440860
0.464320
0.485830
0.504400
0.522970
0.540570
0.553270
0.562070
0.566960
0.568910
0.568910
0.567940
0.565980
0.564030
0.560120
0.557180
0.554250
0.550340
0.546430
0.543500
0.542520
0.541540
0.537630
0.532750
0.526880
0.520040
0.513200
0.506350
0.499510
0.491690
0.483870
0.477030
0.472140
0.466280
0.462370
0.457480
0.453570
0.450640
0.448680
0.446730
0.444770
0.442820
0.439880
0.436950
0.434020
0.432060
0.430110
0.427170
0.425220
0.423260
0.421310
0.419350
0.418380
0.418380
0.418380
0.418380
0.417400
0.417400
0.416420
0.415440
0.414470
0.413490
0.413490
0.412510
0.411530
0.410560
0.408600
0.406650
0.404690
0.403710
0.401760
0.400780
0.400780
0.399800
0.398830
0.399800
0.400780
0.402740
0.406650
0.412510
0.424240
0.439880
0.459430
0.482890
0.507330
0.531770
0.555230
0.576740
0.593350
0.605080
0.612900
0.618770
0.622680
0.624630
0.625610
0.623660
0.620720
0.617790
0.612900
0.608990
0.605080
0.600200
0.596290
0.591400
0.586510
0.582600
0.577710
0.571850
0.565000
0.556210
0.546430
0.535680
0.525900
0.517110
0.511240
0.506350
0.502440
0.497560
0.492670
0.488760
0.483870
0.479960
0.475070
0.471160
0.469210
0.467250
0.465300
0.462370
0.460410
0.456500
0.452590
0.448680
0.445750
0.442820
0.440860
0.438910
0.436950
0.435000
0.434020
0.432060
0.431090
0.429130
0.427170
0.425220
0.422290
0.421310
0.420330
0.420330
0.420330
0.420330
0.420330
0.419350
0.419350
0.419350
0.417400
0.415440
0.413490
0.411530
0.409580
0.409580
0.411530
0.415440
0.424240
0.438910
0.454550
0.474100
0.498530
0.524930
0.552300
0.576740
0.597260
0.612900
0.623660
0.629520
0.632450
0.634410
0.635390
0.635390
0.633430
0.630500
0.627570
0.624630
0.621700
0.617790
0.613880
0.608990
0.605080
0.600200
0.594330
0.588470
0.582600
0.576740
0.569890
0.562070
0.552300
0.542520
0.531770
0.521990
0.514170
0.508310
0.502440
0.498530
0.495600
0.492670
0.489740
0.485830
0.482890
0.479960
0.476050
0.472140
0.468230
0.463340
0.459430
0.454550
0.449660
0.445750
0.441840
0.438910
0.436950
0.434020
0.432060
0.430110
0.427170
0.425220
0.422290
0.419350
0.416420
0.414470
0.411530
0.409580
0.407620
0.404690
0.402740
0.401760
0.401760
0.402740
0.402740
0.402740
0.401760
0.400780
0.399800
0.397850
0.395890
0.395890
0.396870
0.399800
0.406650
0.418380
0.436950
0.459430
0.485830
0.509290
0.530790
0.552300
0.572830
0.589440
0.602150
0.612900
0.620720
0.626590
0.628540
0.630500
0.630500
0.628540
0.625610
0.621700
0.615840
0.609970
0.604110
0.598240
0.592380
0.586510
0.581620
0.575760
0.569890
0.562070
0.550340
0.535680
0.522970
0.511240
0.500490
0.490710
0.481920
0.473120
0.465300
0.459430
0.453570
0.448680
0.443790
0.439880
0.435970
0.432060
0.428150
0.425220
0.422290
0.419350
0.416420
0.412510
0.409580
0.405670
0.402740
0.400780
0.398830
0.395890
0.392960
0.390030
0.388070
0.385140
0.383190
0.380250
0.378300
0.376340
0.373410
0.369500
0.367550
0.365590
0.363640
0.361680
0.360700
0.358750
0.357770
0.356790
0.354840
0.354840
0.354840
0.353860
0.353860
0.353860
0.354840
0.355820
0.358750
0.363640
0.374390
0.390030
0.411530
0.435970
0.463340
0.490710
0.515150
0.534700
0.549360
0.561090
0.569890
0.574780
0.577710
0.576740
0.573800
0.570870
0.567940
0.565980
0.563050
0.561090
0.558160
0.554250
0.548390
0.541540
0.535680
0.526880
0.517110
0.508310
0.501470
0.493650
0.487780
0.481920
0.476050
0.471160
0.465300
0.460410
0.455520
0.450640
0.446730
0.441840
0.436950
0.432060
0.428150
0.425220
0.423260
0.421310
0.419350
0.417400
0.415440
0.413490
0.410560
0.408600
0.405670
0.401760
0.397850
0.394920
0.391010
0.389050
0.387100
0.384160
0.381230
0.378300
0.376340
0.373410
0.371460
0.368520
0.366570
0.364610
0.361680
0.360700
0.358750
0.356790
0.355820
0.354840
0.354840
0.353860
0.353860
0.353860
0.353860
0.353860
0.353860
0.354840
0.355820
0.358750
0.365590
0.377320
0.394920
0.417400
0.441840
0.468230
0.492670
0.515150
0.533720
0.549360
0.559140
0.565000
0.569890
0.571850
0.572830
0.572830
0.571850
0.569890
0.567940
0.565980
0.563050
0.561090
0.559140
0.556210
0.553270
0.547410
0.541540
0.534700
0.525900
0.515150
0.505380
0.495600
0.485830
0.477030
0.468230
0.462370
0.457480
0.453570
0.449660
0.446730
0.442820
0.438910
0.435000
0.432060
0.429130
0.427170
0.426200
0.425220
0.425220
0.423260
0.422290
0.419350
0.418380
0.417400
0.416420
0.415440
0.414470
0.413490
0.411530
0.410560
0.408600
0.407620
0.405670
0.403710
0.401760
0.398830
0.396870
0.394920
0.391980
0.390030
0.387100
0.386120
0.385140
0.386120
0.388070
0.390030
0.390030
0.390030
0.389050
0.389050
0.389050
0.392960
0.399800
0.410560
0.426200
0.442820
0.462370
0.487780
0.514170
0.539590
0.562070
0.581620
0.598240
0.610950
0.619750
0.626590
0.630500
0.631480
0.630500
0.627570
0.623660
0.618770
0.612900
0.607040
0.602150
0.598240
0.594330
0.589440
0.585530
0.579670
0.572830
0.566960
0.560120
0.554250
0.545450
0.536660
0.528840
0.520040
0.511240
0.503420
0.495600
0.489740
0.485830
0.481920
0.479960
0.478980
0.478980
0.478010
0.477030
0.474100
0.471160
0.467250
0.463340
0.459430
0.455520
0.451610
0.447700
0.442820
0.439880
0.436950
0.434020
0.432060
0.432060
0.433040
0.434020
0.434020
0.434020
0.433040
0.433040
0.431090
0.429130
0.427170
0.425220
0.423260
0.421310
0.420330
0.419350
0.418380
0.418380
0.417400
0.417400
0.416420
0.414470
0.413490
0.415440
0.418380
0.426200
0.437930
0.455520
0.476050
0.499510
0.523950
0.544480
0.561090
0.577710
0.592380
0.605080
0.612900
0.617790
0.620720
0.620720
0.619750
0.617790
0.617790
0.616810
0.614860
0.612900
0.609970
0.608020
0.605080
0.601170
0.596290
0.590420
0.582600
0.575760
0.567940
0.560120
0.553270
0.546430
0.537630
0.527860
0.520040
0.512220
0.506350
0.501470
0.496580
0.493650
0.490710
0.487780
0.483870
0.479960
0.477030
0.473120
0.469210
0.465300
0.461390
0.457480
0.452590
0.448680
0.444770
0.441840
0.438910
0.436950
0.435000
0.433040
0.430110
0.426200
0.423260
0.419350
0.416420
0.413490
0.411530
0.409580
0.406650
0.405670
0.404690
0.403710
0.402740
0.402740
0.401760
0.399800
0.398830
0.396870
0.394920
0.391980
0.390030
0.389050
0.390030
0.391980
0.395890
0.403710
0.416420
0.433040
0.454550
0.478010
0.502440
0.525900
0.547410
0.565000
0.576740
0.584560
0.590420
0.593350
0.593350
0.591400
0.588470
0.584560
0.580650
0.576740
0.573800
0.571850
0.568910
0.565980
0.564030
0.561090
0.557180
0.552300
0.546430
0.539590
0.530790
0.521990
0.512220
0.503420
0.494620
0.487780
0.482890
0.478010
0.474100
0.470190
0.465300
0.461390
0.457480
0.453570
0.448680
0.444770
0.441840
0.438910
0.436950
0.435000
0.434020
0.431090
0.428150
0.426200
0.423260
0.421310
0.419350
0.417400
0.414470
0.411530
0.409580
0.407620
0.403710
0.399800
0.396870
0.394920
0.392960
0.390030
0.388070
0.387100
0.387100
0.387100
0.387100
0.387100
0.387100
0.386120
0.385140
0.383190
0.382210
0.379280
0.377320
0.376340
0.375370
0.375370
0.378300
0.382210
0.390030
0.402740
0.420330
0.439880
0.462370
0.483870
0.504400
0.522970
0.539590
0.553270
0.561090
0.565980
0.567940
0.567940
0.566960
0.565000
0.563050
0.559140
0.555230
0.550340
0.544480
0.538610
0.532750
0.526880
0.521020
0.515150
0.509290
0.503420
0.496580
0.489740
0.483870
0.478010
0.472140
0.466280
0.460410
0.455520
0.450640
0.446730
0.443790
0.440860
0.438910
0.435970
0.434020
0.433040
0.431090
0.430110
0.428150
0.426200
0.424240
0.422290
0.420330
0.415440
0.411530
0.407620
0.402740
0.399800
0.395890
0.391980
0.389050
0.386120
0.383190
0.380250
0.379280
0.378300
0.378300
0.378300
0.379280
0.380250
0.381230
0.382210
0.383190
0.384160
0.385140
0.384160
0.384160
0.383190
0.381230
0.380250
0.379280
0.378300
0.379280
0.382210
0.388070
0.398830
0.413490
0.433040
0.454550
0.475070
0.493650
0.514170
0.534700
0.552300
0.566960
0.576740
0.584560
0.588470
0.591400
0.591400
0.590420
0.587490
0.584560
0.582600
0.579670
0.575760
0.571850
0.568910
0.566960
0.564030
0.559140
0.553270
0.545450
0.536660
0.527860
0.520040
0.510260
0.502440
0.494620
0.488760
0.483870
0.478980
0.475070
0.471160
0.467250
0.464320
0.461390
0.458460
0.455520
0.452590
0.448680
0.445750
0.442820
0.440860
0.438910
0.435970
0.435000
0.433040
0.432060
0.431090
0.429130
0.428150
0.426200
0.424240
0.421310
0.419350
0.417400
0.415440
0.413490
0.411530
0.409580
0.407620
0.406650
0.404690
0.403710
0.403710
0.404690
0.404690
0.404690
0.403710
0.401760
0.400780
0.398830
0.396870
0.395890
0.394920
0.395890
0.398830
0.404690
0.415440
0.433040
0.454550
0.479960
0.506350
0.531770
0.555230
0.572830
0.585530
0.596290
0.604110
0.608990
0.611930
0.612900
0.613880
0.613880
0.611930
0.610950
0.608990
0.606060
0.603130
0.600200
0.598240
0.594330
0.591400
0.587490
0.582600
0.576740
0.569890
0.561090
0.552300
0.541540
0.532750
0.524930
0.516130
0.508310
0.501470
0.496580
0.491690
0.487780
0.482890
0.478980
0.476050
0.472140
0.468230
0.465300
0.461390
0.457480
0.453570
0.448680
0.444770
0.441840
0.438910
0.436950
0.434020
0.432060
0.430110
0.428150
0.427170
0.425220
0.423260
0.421310
0.418380
0.415440
0.413490
0.410560
0.408600
0.406650
0.405670
0.404690
0.404690
0.404690
0.404690
0.404690
0.404690
0.404690
0.404690
0.403710
0.402740
0.402740
0.403710
0.405670
0.409580
0.414470
0.425220
0.439880
0.459430
0.482890
0.508310
0.533720
0.555230
0.574780
0.589440
0.600200
0.607040
0.610950
0.612900
0.613880
0.613880
0.611930
0.609970
0.607040
0.603130
0.599220
0.595310
0.591400
0.587490
0.582600
0.577710
0.571850
0.565000
0.559140
0.552300
0.544480
0.534700
0.524930
0.515150
0.507330
0.500490
0.495600
0.490710
0.486800
0.482890
0.478980
0.475070
0.471160
0.468230
0.465300
0.461390
0.457480
0.453570
0.448680
0.445750
0.442820
0.440860
0.438910
0.436950
0.435000
0.433040
0.430110
0.427170
0.424240
0.421310
0.417400
0.415440
0.413490
0.410560
0.406650
0.401760
0.398830
0.394920
0.391980
0.389050
0.388070
0.387100
0.387100
0.386120
0.385140
0.385140
0.384160
0.382210
0.380250
0.378300
0.375370
0.374390
0.374390
0.376340
0.382210
0.392960
0.405670
0.422290
0.443790
0.469210
0.494620
0.519060
0.541540
0.559140
0.571850
0.581620
0.588470
0.590420
0.590420
0.587490
0.584560
0.580650
0.578690
0.576740
0.574780
0.572830
0.570870
0.568910
0.565000
0.560120
0.553270
0.547410
0.542520
0.535680
0.527860
0.520040
0.512220
0.503420
0.495600
0.487780
0.481920
0.476050
0.471160
0.467250
0.463340
0.459430
0.455520
0.451610
0.446730
0.442820
0.439880
0.437930
0.435000
0.432060
0.428150
0.425220
0.423260
0.421310
0.417400
0.413490
0.409580
0.405670
0.400780
0.396870
0.393940
0.391980
0.389050
0.387100
0.385140
0.384160
0.382210
0.380250
0.378300
0.375370
0.374390
0.373410
0.373410
0.372430
0.373410
0.374390
0.373410
0.373410
0.373410
0.372430
0.372430
0.372430
0.373410
0.374390
0.377320
0.384160
0.394920
0.410560
0.430110
0.449660
0.469210
0.490710
0.512220
0.531770
0.548390
0.561090
0.568910
0.572830
0.573800
0.573800
0.570870
0.566960
0.562070
0.557180
0.552300
0.547410
0.541540
0.535680
0.528840
0.522970
0.517110
0.511240
0.505380
0.499510
0.494620
0.488760
0.482890
0.476050
0.468230
0.460410
0.454550
0.449660
0.445750
0.442820
0.441840
0.440860
0.438910
0.437930
0.436950
0.435000
0.432060
0.429130
0.425220
0.421310
0.416420
0.412510
0.409580
0.406650
0.404690
0.402740
0.401760
0.399800
0.397850
0.395890
0.394920
0.393940
0.392960
0.391980
0.391010
0.389050
0.387100
0.384160
0.383190
0.381230
0.381230
0.381230
0.380250
0.380250
0.379280
0.377320
0.375370
0.374390
0.373410
0.373410
0.373410
0.374390
0.377320
0.384160
0.394920
0.410560
0.431090
0.455520
0.482890
0.509290
0.533720
0.556210
0.572830
0.585530
0.593350
0.598240
0.602150
0.603130
0.603130
0.601170
0.597260
0.593350
0.589440
0.585530
0.581620
0.578690
0.575760
0.572830
0.570870
0.567940
0.563050
0.557180
0.550340
0.542520
0.532750
0.522970
0.514170
0.506350
0.501470
0.497560
0.492670
0.488760
0.485830
0.483870
0.480940
0.477030
0.473120
0.470190
0.467250
0.464320
0.461390
0.460410
0.460410
0.457480
0.453570
0.448680
0.444770
0.439880
0.436950
0.433040
0.431090
0.428150
0.426200
0.424240
0.422290
0.420330
0.417400
0.414470
0.411530
0.409580
0.406650
0.404690
0.401760
0.399800
0.397850
0.397850
0.398830
0.400780
0.402740
0.403710
0.404690
0.402740
0.401760
0.399800
0.399800
0.401760
0.408600
0.417400
0.430110
0.447700
0.471160
0.499510
0.527860
0.557180
0.583580
0.606060
0.623660
0.637340
0.646140
0.651030
0.652980
0.652000
0.652000
0.651030
0.650050
0.649070
0.648090
0.647120
0.646140
0.644180
0.641250
0.638320
0.633430
0.626590
0.617790
0.608020
0.597260
0.585530
0.570870
0.558160
0.548390
0.539590
0.531770
0.523950
0.518080
0.513200
0.508310
0.504400
0.499510
0.494620
0.490710
0.487780
0.484850
0.481920
0.478010
0.473120
0.469210
0.464320
0.461390
0.456500
0.452590
0.449660
0.446730
0.444770
0.441840
0.439880
0.436950
0.435000
0.433040
0.430110
0.428150
0.427170
0.425220
0.423260
0.423260
0.422290
0.422290
0.422290
0.423260
0.424240
0.423260
0.422290
0.421310
0.419350
0.418380
0.415440
0.414470
0.414470
0.418380
0.426200
0.439880
0.458460
0.481920
0.509290
0.537630
0.562070
0.581620
0.601170
0.618770
0.631480
0.640270
0.646140
0.648090
0.648090
0.646140
0.644180
0.641250
0.637340
0.633430
0.629520
0.625610
0.622680
0.618770
0.614860
0.609970
0.604110
0.597260
0.589440
0.580650
0.569890
0.560120
0.550340
0.539590
0.530790
0.522970
0.517110
0.513200
0.509290
0.506350
0.503420
0.498530
0.494620
0.490710
0.486800
0.482890
0.478010
0.473120
0.467250
0.462370
0.457480
0.453570
0.449660
0.446730
0.442820
0.439880
0.436950
0.435000
0.433040
0.430110
0.428150
0.425220
0.423260
0.421310
0.418380
0.416420
0.413490
0.411530
0.409580
0.408600
0.406650
0.403710
0.401760
0.399800
0.396870
0.394920
0.392960
0.391010
0.389050
0.388070
0.389050
0.391980
0.395890
0.404690
0.419350
0.439880
0.464320
0.491690
0.521020
0.548390
0.571850
0.590420
0.605080
0.613880
0.618770
0.623660
0.625610
0.624630
0.622680
0.618770
0.614860
0.609970
0.606060
0.601170
0.597260
0.593350
0.591400
0.587490
0.583580
0.577710
0.570870
0.563050
0.553270
0.541540
0.529810
0.520040
0.509290
0.499510
0.491690
0.486800
0.480940
0.475070
0.470190
0.466280
0.461390
0.456500
0.452590
0.449660
0.446730
0.445750
0.444770
0.443790
0.442820
0.441840
0.438910
0.435000
0.430110
0.425220
0.417400
0.409580
0.404690
0.400780
0.397850
0.396870
0.392960
0.390030
0.387100
0.385140
0.382210
0.379280
0.377320
0.375370
0.373410
0.373410
0.372430
0.370480
0.368520
0.366570
0.365590
0.363640
0.362660
0.362660
0.362660
0.364610
0.367550
0.374390
0.386120
0.400780
0.416420
0.435970
0.459430
0.482890
0.506350
0.526880
0.544480
0.558160
0.566960
0.571850
0.573800
0.572830
0.569890
0.566960
0.562070
0.557180
0.552300
0.547410
0.543500
0.539590
0.534700
0.528840
0.521990
0.515150
0.507330
0.500490
0.492670
0.483870
0.475070
0.467250
0.459430
0.453570
0.447700
0.442820
0.438910
0.435000
0.432060
0.431090
0.430110
0.428150
0.426200
0.424240
0.422290
0.419350
0.417400
0.415440
0.412510
0.409580
0.405670
0.403710
0.401760
0.399800
0.397850
0.395890
0.392960
0.391010
0.389050
0.386120
0.383190
0.380250
0.378300
0.376340
0.373410
0.371460
0.367550
0.365590
0.364610
0.364610
0.364610
0.365590
0.367550
0.369500
0.369500
0.370480
0.370480
0.370480
0.372430
0.374390
0.377320
0.384160
0.394920
0.409580
0.428150
0.451610
0.477030
0.503420
0.524930
0.541540
0.557180
0.568910
0.576740
0.580650
0.581620
0.580650
0.578690
0.575760
0.573800
0.570870
0.568910
0.566960
0.564030
0.562070
0.560120
0.558160
0.554250
0.549360
0.543500
0.537630
0.530790
0.521990
0.513200
0.505380
0.499510
0.493650
0.488760
0.484850
0.479960
0.476050
0.471160
0.466280
0.461390
0.456500
0.451610
0.447700
0.444770
0.441840
0.438910
0.435970
0.433040
0.431090
0.429130
0.426200
0.424240
0.422290
0.420330
0.418380
0.417400
0.417400
0.417400
0.417400
0.416420
0.414470
0.412510
0.410560
0.408600
0.406650
0.404690
0.401760
0.399800
0.398830
0.396870
0.394920
0.393940
0.393940
0.392960
0.391980
0.391010
0.390030
0.390030
0.390030
0.393940
0.399800
0.409580
0.424240
0.444770
0.469210
0.496580
0.522970
0.548390
0.568910
0.586510
0.599220
0.608990
0.614860
0.616810
0.617790
0.617790
0.615840
0.613880
0.611930
0.609970
0.607040
0.605080
0.603130
0.601170
0.597260
0.593350
0.589440
0.585530
0.579670
0.572830
0.564030
0.554250
0.544480
0.533720
0.522970
0.512220
0.503420
0.497560
0.493650
0.488760
0.484850
0.480940
0.478010
0.475070
0.472140
0.468230
0.464320
0.460410
0.455520
0.451610
0.447700
0.443790
0.439880
0.435000
0.431090
0.426200
0.423260
0.420330
0.418380
0.415440
0.413490
0.411530
0.409580
0.407620
0.409580
0.411530
0.411530
0.410560
0.409580
0.407620
0.406650
0.405670
0.404690
0.405670
0.405670
0.406650
0.405670
0.404690
0.402740
0.401760
0.402740
0.404690
0.409580
0.418380
0.432060
0.449660
0.472140
0.493650
0.513200
0.535680
0.557180
0.576740
0.591400
0.603130
0.611930
0.615840
0.617790
0.616810
0.614860
0.610950
0.607040
0.603130
0.599220
0.595310
0.590420
0.586510
0.582600
0.577710
0.573800
0.567940
0.562070
0.556210
0.549360
0.542520
0.532750
0.522970
0.513200
0.504400
0.496580
0.489740
0.483870
0.478980
0.474100
0.470190
0.465300
0.462370
0.458460
0.454550
0.450640
0.446730
0.444770
0.441840
0.439880
0.436950
0.435000
0.433040
0.431090
0.429130
0.428150
0.426200
0.424240
0.420330
0.416420
0.413490
0.409580
0.406650
0.403710
0.400780
0.396870
0.392960
0.390030
0.388070
0.386120
0.385140
0.385140
0.384160
0.383190
0.381230
0.379280
0.378300
0.377320
0.377320
0.377320
0.377320
0.378300
0.381230
0.389050
0.400780
0.416420
0.435970
0.459430
0.484850
0.509290
0.530790
0.549360
0.562070
0.569890
0.575760
0.578690
0.579670
0.577710
0.575760
0.572830
0.570870
0.568910
0.565980
0.564030
0.561090
0.557180
0.552300
0.546430
0.540570
0.533720
0.524930
0.515150
0.506350
0.498530
0.490710
0.483870
0.478010
0.473120
0.469210
0.465300
0.461390
0.457480
0.452590
0.448680
0.444770
0.441840
0.438910
0.435000
0.431090
0.428150
0.426200
0.422290
0.419350
0.416420
0.414470
0.412510
0.409580
0.407620
0.403710
0.400780
0.396870
0.392960
0.389050
0.387100
0.384160
0.381230
0.379280
0.378300
0.377320
0.377320
0.377320
0.377320
0.377320
0.377320
0.378300
0.379280
0.378300
0.377320
0.377320
0.377320
0.377320
0.377320
0.377320
0.377320
0.377320
0.378300
0.381230
0.387100
0.395890
0.409580
0.428150
0.450640
0.473120
0.496580
0.517110
0.535680
0.551320
0.562070
0.567940
0.570870
0.570870
0.568910
0.565980
0.562070
0.558160
0.553270
0.549360
0.544480
0.539590
0.535680
0.531770
0.526880
0.522970
0.517110
0.511240
0.506350
0.501470
0.493650
0.485830
0.478980
0.473120
0.468230
0.464320
0.459430
0.455520
0.452590
0.448680
0.444770
0.441840
0.439880
0.437930
0.435000
0.433040
0.431090
0.429130
0.426200
0.425220
0.424240
0.422290
0.420330
0.418380
0.416420
0.413490
0.411530
0.409580
0.408600
0.408600
0.408600
0.408600
0.407620
0.406650
0.404690
0.402740
0.401760
0.400780
0.399800
0.399800
0.398830
0.398830
0.397850
0.396870
0.396870
0.395890
0.394920
