0.015625
0.025391
0.050781
0.080078
0.099609
0.134770
0.156250
0.189450
0.210940
0.230470
0.230470
0.234380
0.214840
0.189450
0.169920
0.140620
0.099609
0.064453
0.025391
-0.003906
-0.013672
-0.029297
-0.044922
-0.054688
-0.058594
-0.064453
-0.058594
-0.070312
-0.070312
-0.074219
-0.074219
-0.070312
-0.074219
-0.074219
-0.054688
-0.044922
-0.009766
0.000000
0.019531
0.041016
0.064453
0.085938
0.095703
0.111330
0.089844
0.054688
0.015625
-0.039062
-0.074219
-0.080078
-0.074219
-0.070312
-0.074219
-0.080078
-0.048828
0.095703
0.390620
0.720700
0.785160
0.445310
0.115230
-0.025391
-0.070312
-0.074219
-0.093750
-0.083984
-0.080078
-0.083984
-0.083984
-0.074219
-0.064453
-0.048828
-0.054688
-0.058594
-0.035156
-0.035156
-0.025391
-0.019531
-0.003906
0.005859
0.031250
0.044922
0.064453
0.095703
0.130860
0.144530
0.166020
0.189450
0.210940
0.220700
0.210940
0.214840
0.189450
0.156250
0.121090
0.099609
0.070312
0.035156
0.005859
-0.019531
-0.029297
-0.044922
-0.064453
-0.074219
-0.058594
-0.058594
-0.074219
-0.080078
-0.074219
-0.074219
-0.074219
-0.080078
-0.074219
-0.064453
-0.064453
-0.044922
-0.019531
-0.003906
0.009766
0.050781
0.064453
0.060547
0.111330
0.076172
0.041016
0.009766
-0.035156
-0.074219
-0.093750
-0.103520
-0.099609
-0.099609
-0.093750
-0.093750
-0.019531
0.220700
0.550780
0.724610
0.583980
0.189450
-0.013672
-0.093750
-0.134770
-0.119140
-0.115230
-0.125000
-0.119140
-0.119140
-0.115230
-0.093750
-0.093750
-0.080078
-0.074219
-0.074219
-0.080078
-0.054688
-0.054688
-0.044922
-0.029297
-0.013672
-0.003906
0.015625
0.041016
0.080078
0.099609
0.140620
0.160160
0.175780
0.195310
0.205080
0.189450
0.169920
0.160160
0.121090
0.085938
0.044922
0.025391
-0.009766
-0.025391
-0.054688
-0.064453
-0.080078
-0.080078
-0.093750
-0.083984
-0.093750
-0.089844
-0.093750
-0.093750
-0.109380
-0.080078
-0.074219
-0.089844
-0.083984
-0.074219
-0.048828
-0.019531
-0.013672
0.015625
0.041016
0.044922
0.070312
0.080078
0.070312
0.035156
0.000000
-0.058594
-0.080078
-0.099609
-0.109380
-0.119140
-0.109380
-0.115230
-0.099609
-0.009766
0.230470
0.535160
0.699220
0.539060
0.150390
-0.044922
-0.115230
-0.134770
-0.128910
-0.128910
-0.134770
-0.119140
-0.119140
-0.119140
-0.125000
-0.115230
-0.093750
-0.093750
-0.093750
-0.080078
-0.074219
-0.070312
-0.058594
-0.039062
-0.025391
-0.009766
0.000000
0.035156
0.064453
0.095703
0.115230
0.140620
0.160160
0.156250
0.169920
0.160160
0.150390
0.121090
0.111330
0.076172
0.044922
0.015625
-0.009766
-0.044922
-0.058594
-0.080078
-0.089844
-0.093750
-0.099609
-0.093750
-0.115230
-0.103520
-0.099609
-0.099609
-0.093750
-0.093750
-0.093750
-0.083984
-0.089844
-0.080078
-0.064453
-0.044922
-0.025391
0.000000
0.031250
0.044922
0.050781
0.070312
0.060547
0.025391
-0.009766
-0.054688
-0.099609
-0.125000
-0.115230
-0.115230
-0.119140
-0.119140
-0.109380
-0.054688
0.166020
0.494140
0.705080
0.574220
0.179690
-0.025391
-0.119140
-0.144530
-0.138670
-0.154300
-0.148440
-0.138670
-0.138670
-0.138670
-0.144530
-0.125000
-0.119140
-0.115230
-0.109380
-0.099609
-0.103520
-0.089844
-0.074219
-0.058594
-0.048828
-0.029297
-0.019531
0.005859
0.041016
0.070312
0.095703
0.115230
0.140620
0.144530
0.140620
0.150390
0.134770
0.111330
0.085938
0.064453
0.031250
0.005859
-0.013672
-0.035156
-0.054688
-0.064453
-0.074219
-0.093750
-0.093750
-0.093750
-0.103520
-0.099609
-0.109380
-0.115230
-0.080078
-0.074219
-0.080078
-0.089844
-0.074219
-0.074219
-0.070312
-0.044922
-0.019531
-0.019531
0.005859
0.031250
0.076172
0.111330
0.115230
0.060547
0.015625
-0.035156
-0.083984
-0.109380
-0.119140
-0.125000
-0.125000
-0.119140
-0.093750
-0.044922
0.130860
0.416020
0.720700
0.744140
0.310550
0.019531
-0.089844
-0.128910
-0.148440
-0.148440
-0.144530
-0.160160
-0.148440
-0.164060
-0.144530
-0.119140
-0.125000
-0.148440
-0.138670
-0.103520
-0.083984
-0.074219
-0.064453
-0.070312
-0.054688
-0.048828
-0.013672
0.015625
0.044922
0.064453
0.089844
0.121090
0.150390
0.160160
0.160160
0.169920
0.140620
0.115230
0.111330
0.089844
0.041016
-0.019531
-0.029297
-0.019531
-0.058594
-0.093750
-0.109380
-0.115230
-0.115230
-0.119140
-0.154300
-0.164060
-0.119140
-0.144530
-0.109380
-0.074219
-0.125000
-0.144530
-0.093750
-0.074219
-0.103520
-0.109380
-0.054688
-0.039062
-0.029297
0.009766
0.035156
0.099609
0.115230
0.070312
0.005859
-0.039062
-0.074219
-0.093750
-0.125000
-0.160160
-0.144530
-0.119140
-0.125000
-0.099609
-0.048828
0.246090
0.605470
0.824220
0.640620
0.220700
-0.035156
-0.144530
-0.164060
-0.148440
-0.189450
-0.199220
-0.179690
-0.169920
-0.189450
-0.138670
-0.148440
-0.164060
-0.164060
-0.109380
-0.119140
-0.138670
-0.080078
-0.099609
-0.048828
-0.074219
-0.093750
0.015625
0.044922
0.025391
0.095703
0.115230
0.089844
0.166020
0.210940
0.166020
0.179690
0.185550
0.125000
0.050781
0.041016
0.044922
-0.035156
-0.003906
-0.039062
-0.083984
-0.080078
-0.138670
-0.144530
-0.144530
-0.154300
-0.144530
-0.148440
-0.138670
-0.119140
-0.115230
-0.119140
-0.119140
-0.109380
-0.103520
-0.109380
-0.089844
-0.064453
-0.044922
-0.035156
-0.009766
0.019531
0.019531
0.054688
0.064453
0.025391
-0.009766
-0.064453
-0.099609
-0.125000
-0.144530
-0.144530
-0.138670
-0.128910
-0.138670
-0.109380
0.054688
0.371090
0.730470
0.798830
0.464840
0.095703
-0.083984
-0.138670
-0.144530
-0.148440
-0.148440
-0.154300
-0.148440
-0.144530
-0.134770
-0.125000
-0.119140
-0.119140
-0.103520
-0.093750
-0.083984
-0.080078
-0.074219
-0.074219
-0.048828
-0.039062
-0.019531
0.009766
0.041016
0.070312
0.099609
0.130860
0.156250
0.169920
0.185550
0.185550
0.179690
0.156250
0.121090
0.089844
0.060547
0.035156
-0.003906
-0.039062
-0.070312
-0.080078
-0.089844
-0.099609
-0.093750
-0.109380
-0.115230
-0.119140
-0.119140
-0.119140
-0.119140
-0.119140
-0.115230
-0.119140
-0.115230
-0.099609
-0.080078
-0.054688
-0.048828
-0.035156
0.019531
0.031250
0.054688
0.076172
0.064453
0.025391
-0.009766
-0.058594
-0.093750
-0.119140
-0.119140
-0.115230
-0.103520
-0.119140
-0.119140
-0.064453
0.179690
0.519530
0.769530
0.779300
0.230470
-0.039062
-0.128910
-0.160160
-0.164060
-0.164060
-0.164060
-0.164060
-0.164060
-0.148440
-0.144530
-0.128910
-0.119140
-0.103520
-0.099609
-0.089844
-0.074219
-0.064453
-0.039062
-0.019531
0.000000
0.015625
0.041016
0.080078
0.105470
0.130860
0.156250
0.189450
0.214840
0.230470
0.230470
0.214840
0.201170
0.175780
0.134770
0.111330
0.085938
0.041016
0.019531
-0.003906
-0.029297
-0.044922
-0.070312
-0.074219
-0.080078
-0.089844
-0.083984
-0.074219
-0.083984
-0.089844
-0.083984
-0.080078
-0.074219
-0.083984
-0.089844
-0.080078
-0.058594
-0.035156
-0.019531
-0.003906
0.015625
0.035156
0.031250
0.080078
0.085938
0.050781
0.009766
-0.035156
-0.080078
-0.103520
-0.119140
-0.125000
-0.128910
-0.119140
-0.115230
-0.119140
0.060547
0.375000
0.685550
0.740230
0.349610
0.031250
-0.089844
-0.138670
-0.164060
-0.160160
-0.169920
-0.169920
-0.164060
-0.148440
-0.148440
-0.144530
-0.119140
-0.115230
-0.119140
-0.093750
-0.089844
-0.093750
-0.074219
-0.070312
-0.044922
-0.039062
-0.009766
0.015625
0.041016
0.064453
0.089844
0.125000
0.156250
0.160160
0.160160
0.179690
0.160160
0.134770
0.099609
0.080078
0.044922
0.015625
-0.013672
-0.035156
-0.058594
-0.083984
-0.089844
-0.103520
-0.103520
-0.115230
-0.103520
-0.119140
-0.103520
-0.115230
-0.115230
-0.103520
-0.109380
-0.125000
-0.119140
-0.093750
-0.080078
-0.089844
-0.054688
-0.044922
-0.048828
0.015625
0.019531
0.050781
0.060547
0.041016
0.009766
-0.044922
-0.093750
-0.119140
-0.138670
-0.144530
-0.144530
-0.134770
-0.138670
-0.128910
-0.048828
0.179690
0.500000
0.679690
0.539060
0.144530
-0.054688
-0.144530
-0.164060
-0.164060
-0.164060
-0.169920
-0.164060
-0.183590
-0.169920
-0.148440
-0.138670
-0.134770
-0.138670
-0.125000
-0.119140
-0.103520
-0.093750
-0.083984
-0.070312
-0.058594
-0.048828
-0.003906
0.000000
0.035156
0.070312
0.085938
0.115230
0.140620
0.140620
0.140620
0.144530
0.125000
0.105470
0.080078
0.054688
0.019531
0.000000
-0.035156
-0.058594
-0.089844
-0.099609
-0.119140
-0.109380
-0.115230
-0.119140
-0.138670
-0.138670
-0.119140
-0.119140
-0.115230
-0.128910
-0.119140
-0.119140
-0.115230
-0.099609
-0.089844
-0.074219
-0.054688
-0.039062
-0.003906
0.025391
0.019531
0.044922
0.054688
0.031250
-0.003906
-0.064453
-0.093750
-0.115230
-0.138670
-0.144530
-0.144530
-0.144530
-0.128910
-0.115230
0.005859
0.275390
0.583980
0.669920
0.380860
0.070312
-0.103520
-0.164060
-0.164060
-0.183590
-0.164060
-0.164060
-0.148440
-0.160160
-0.154300
-0.148440
-0.144530
-0.144530
-0.138670
-0.128910
-0.119140
-0.103520
-0.093750
-0.083984
-0.074219
-0.048828
-0.035156
-0.013672
0.009766
0.041016
0.070312
0.095703
0.115230
0.130860
0.140620
0.150390
0.144530
0.130860
0.111330
0.085938
0.054688
0.031250
0.005859
-0.013672
-0.035156
-0.048828
-0.064453
-0.089844
-0.093750
-0.089844
-0.093750
-0.089844
-0.093750
-0.093750
-0.093750
-0.093750
-0.089844
-0.083984
-0.083984
-0.099609
-0.080078
-0.035156
-0.009766
0.000000
0.000000
0.015625
0.050781
0.070312
0.089844
0.095703
0.050781
-0.003906
-0.058594
-0.089844
-0.109380
-0.138670
-0.128910
-0.089844
-0.070312
-0.074219
-0.048828
0.130860
0.419920
0.734380
0.769530
0.320310
0.031250
-0.080078
-0.128910
-0.148440
-0.164060
-0.144530
-0.138670
-0.144530
-0.154300
-0.138670
-0.119140
-0.144530
-0.164060
-0.134770
-0.093750
-0.083984
-0.089844
-0.070312
-0.054688
-0.048828
-0.035156
-0.029297
0.025391
0.044922
0.041016
0.089844
0.160160
0.179690
0.150390
0.140620
0.179690
0.185550
0.099609
0.085938
0.160160
0.076172
-0.029297
-0.029297
-0.025391
-0.054688
-0.089844
-0.115230
-0.109380
-0.103520
-0.099609
-0.093750
-0.160160
-0.164060
-0.093750
-0.115230
-0.119140
-0.128910
-0.134770
-0.074219
-0.109380
-0.128910
-0.074219
-0.029297
-0.048828
-0.058594
0.015625
0.050781
0.035156
0.064453
0.070312
0.015625
-0.054688
-0.093750
-0.093750
-0.089844
-0.125000
-0.154300
-0.144530
-0.109380
-0.119140
-0.064453
0.179690
0.564450
0.814450
0.708980
0.246090
-0.003906
-0.128910
-0.164060
-0.189450
-0.214840
-0.183590
-0.164060
-0.179690
-0.173830
-0.160160
-0.154300
-0.179690
-0.138670
-0.128910
-0.148440
-0.154300
-0.119140
-0.119140
-0.083984
-0.058594
-0.039062
-0.025391
-0.035156
0.025391
0.054688
0.085938
0.144530
0.160160
0.156250
0.150390
0.169920
0.160160
0.121090
0.085938
0.054688
0.031250
0.005859
-0.025391
-0.054688
-0.074219
-0.089844
-0.099609
-0.115230
-0.125000
-0.138670
-0.125000
-0.119140
-0.119140
-0.128910
-0.119140
-0.109380
-0.109380
-0.099609
-0.093750
-0.093750
-0.074219
-0.054688
-0.035156
-0.009766
0.015625
0.041016
0.044922
0.070312
0.080078
0.060547
0.031250
-0.019531
-0.064453
-0.093750
-0.099609
-0.115230
-0.115230
-0.109380
-0.099609
-0.093750
0.041016
0.320310
0.669920
0.814450
0.574220
0.150390
-0.048828
-0.128910
-0.138670
-0.138670
-0.144530
-0.138670
-0.134770
-0.125000
-0.119140
-0.128910
-0.119140
-0.103520
-0.099609
-0.080078
-0.074219
-0.070312
-0.048828
-0.029297
-0.025391
-0.009766
0.015625
0.035156
0.060547
0.085938
0.125000
0.160160
0.189450
0.205080
0.214840
0.210940
0.201170
0.185550
0.169920
0.140620
0.105470
0.064453
0.044922
0.025391
-0.009766
-0.044922
-0.044922
-0.035156
-0.058594
-0.070312
-0.080078
-0.070312
-0.064453
-0.074219
-0.080078
-0.074219
-0.083984
-0.074219
-0.058594
-0.048828
-0.039062
-0.003906
0.015625
0.019531
0.044922
0.070312
0.095703
0.111330
0.089844
0.064453
0.035156
-0.013672
-0.064453
-0.080078
-0.093750
-0.074219
-0.080078
-0.074219
-0.074219
-0.035156
0.175780
0.500000
0.765620
0.785160
0.300780
0.025391
-0.080078
-0.109380
-0.115230
-0.125000
-0.119140
-0.125000
-0.119140
-0.119140
-0.099609
-0.093750
-0.089844
-0.083984
-0.074219
-0.080078
-0.064453
-0.048828
-0.035156
-0.019531
-0.013672
0.005859
0.025391
0.054688
0.076172
0.115230
0.140620
0.160160
0.179690
0.195310
0.210940
0.185550
0.185550
0.166020
0.130860
0.111330
0.076172
0.035156
0.019531
-0.019531
-0.054688
-0.064453
-0.074219
-0.074219
-0.074219
-0.070312
-0.099609
-0.089844
-0.080078
-0.089844
-0.083984
-0.093750
-0.080078
-0.074219
-0.089844
-0.070312
-0.048828
-0.029297
-0.009766
-0.013672
0.035156
0.050781
0.044922
0.085938
0.050781
0.035156
0.000000
-0.029297
-0.089844
-0.099609
-0.109380
-0.099609
-0.103520
-0.115230
-0.093750
-0.019531
0.189450
0.515620
0.730470
0.609380
0.205080
-0.029297
-0.099609
-0.119140
-0.138670
-0.154300
-0.119140
-0.134770
-0.125000
-0.119140
-0.115230
-0.115230
-0.103520
-0.093750
-0.089844
-0.080078
-0.058594
-0.054688
-0.058594
-0.025391
-0.019531
0.015625
0.025391
0.054688
0.070312
0.105470
0.121090
0.156250
0.179690
0.189450
0.201170
0.195310
0.175780
0.150390
0.130860
0.085938
0.076172
0.035156
0.009766
-0.009766
-0.039062
-0.035156
-0.048828
-0.058594
-0.070312
-0.074219
-0.064453
-0.064453
-0.074219
-0.054688
-0.048828
-0.054688
-0.048828
-0.048828
-0.048828
-0.039062
-0.019531
0.015625
0.031250
0.019531
0.080078
0.095703
0.121090
0.134770
0.121090
0.080078
0.041016
0.000000
-0.035156
-0.058594
-0.074219
-0.070312
-0.048828
-0.054688
-0.039062
0.044922
0.275390
0.595700
0.765620
0.595700
0.214840
0.025391
-0.054688
-0.070312
-0.070312
-0.064453
-0.074219
-0.074219
-0.064453
-0.054688
-0.044922
-0.048828
-0.025391
-0.019531
-0.019531
-0.003906
-0.003906
0.015625
0.031250
0.041016
0.054688
0.080078
0.099609
0.125000
0.150390
0.160160
0.205080
0.230470
0.240230
0.234380
0.255860
0.234380
0.230470
0.205080
0.175780
0.156250
0.111330
0.095703
0.085938
0.041016
0.019531
0.005859
0.000000
-0.009766
-0.019531
-0.013672
-0.029297
-0.013672
-0.025391
-0.019531
-0.003906
0.000000
-0.003906
0.005859
0.000000
0.015625
0.035156
0.070312
0.080078
0.076172
0.134770
0.140620
0.156250
0.166020
0.144530
0.111330
0.060547
0.005859
-0.035156
-0.035156
-0.044922
-0.039062
-0.039062
-0.044922
-0.029297
0.080078
0.314450
0.644530
0.759770
0.515620
0.156250
-0.009766
-0.064453
-0.080078
-0.080078
-0.093750
-0.093750
-0.089844
-0.089844
-0.089844
-0.083984
-0.074219
-0.080078
-0.074219
-0.074219
-0.064453
-0.070312
-0.054688
-0.058594
-0.029297
-0.009766
0.000000
0.019531
0.041016
0.054688
0.076172
0.111330
0.134770
0.140620
0.150390
0.144530
0.134770
0.115230
0.085938
0.060547
0.031250
-0.003906
-0.039062
-0.070312
-0.099609
-0.115230
-0.128910
-0.144530
-0.148440
-0.154300
-0.148440
-0.148440
-0.154300
-0.144530
-0.144530
-0.144530
-0.154300
-0.160160
-0.160160
-0.160160
-0.144530
-0.119140
-0.093750
-0.093750
-0.083984
-0.048828
-0.035156
-0.019531
-0.013672
-0.048828
-0.083984
-0.144530
-0.208980
-0.244140
-0.263670
-0.285160
-0.289060
-0.259770
-0.234380
-0.228520
-0.083984
0.201170
0.535160
0.589840
0.201170
-0.119140
-0.263670
-0.324220
-0.339840
-0.343750
-0.333980
-0.343750
-0.353520
-0.369140
-0.349610
-0.304690
-0.289060
-0.308590
-0.333980
-0.343750
-0.304690
-0.304690
-0.298830
-0.289060
-0.273440
-0.253910
-0.244140
-0.250000
-0.205080
-0.179690
-0.154300
-0.103520
-0.080078
-0.058594
-0.048828
-0.070312
-0.093750
-0.128910
-0.138670
-0.134770
-0.199220
-0.234380
-0.273440
-0.285160
-0.308590
-0.339840
-0.339840
-0.343750
-0.378910
-0.375000
-0.384770
-0.419920
-0.394530
-0.363280
-0.359380
-0.394530
-0.378910
-0.388670
-0.398440
-0.378910
-0.378910
-0.384770
-0.363280
-0.349610
-0.318360
-0.304690
-0.294920
-0.253910
-0.250000
-0.314450
-0.333980
-0.375000
-0.414060
-0.458980
-0.484380
-0.458980
-0.464840
-0.419920
-0.414060
-0.423830
-0.250000
0.111330
0.449220
0.519530
0.080078
-0.250000
-0.404300
-0.478520
-0.494140
-0.474610
-0.468750
-0.494140
-0.458980
-0.498050
-0.464840
-0.453120
-0.498050
-0.484380
-0.453120
-0.414060
-0.398440
-0.429690
-0.369140
-0.398440
-0.419920
-0.375000
-0.314450
-0.273440
-0.234380
-0.218750
-0.193360
-0.154300
-0.134770
-0.099609
-0.080078
-0.089844
-0.115230
-0.134770
-0.160160
-0.183590
-0.214840
-0.240230
-0.269530
-0.298830
-0.314450
-0.330080
-0.349610
-0.353520
-0.353520
-0.353520
-0.353520
-0.349610
-0.343750
-0.339840
-0.330080
-0.330080
-0.324220
-0.318360
-0.304690
-0.294920
-0.285160
-0.269530
-0.244140
-0.224610
-0.183590
-0.144530
-0.138670
-0.099609
-0.109380
-0.134770
-0.169920
-0.214840
-0.259770
-0.285160
-0.294920
-0.294920
-0.285160
-0.273440
-0.263670
-0.240230
-0.039062
0.269530
0.580080
0.628910
0.205080
-0.119140
-0.244140
-0.279300
-0.289060
-0.289060
-0.294920
-0.285160
-0.279300
-0.285160
-0.263670
-0.259770
-0.250000
-0.240230
-0.228520
-0.214840
-0.205080
-0.199220
-0.189450
-0.169920
-0.144530
-0.128910
-0.119140
-0.089844
-0.070312
-0.029297
0.000000
0.015625
0.041016
0.044922
0.060547
0.070312
0.054688
0.035156
0.015625
-0.009766
-0.048828
-0.080078
-0.109380
-0.128910
-0.164060
-0.169920
-0.183590
-0.189450
-0.199220
-0.214840
-0.218750
-0.199220
-0.193360
-0.199220
-0.199220
-0.189450
-0.183590
-0.183590
-0.173830
-0.154300
-0.125000
-0.103520
-0.083984
-0.064453
-0.035156
-0.025391
0.005859
0.015625
-0.025391
-0.074219
-0.134770
-0.183590
-0.205080
-0.214840
-0.214840
-0.214840
-0.199220
-0.205080
-0.173830
-0.009766
0.310550
0.628910
0.675780
0.240230
-0.054688
-0.179690
-0.218750
-0.234380
-0.250000
-0.234380
-0.234380
-0.224610
-0.228520
-0.214840
-0.199220
-0.193360
-0.183590
-0.164060
-0.169920
-0.148440
-0.128910
-0.115230
-0.103520
-0.080078
-0.064453
-0.048828
-0.025391
-0.003906
0.031250
0.060547
0.085938
0.111330
0.134770
0.125000
0.140620
0.130860
0.115230
0.085938
0.060547
0.035156
0.005859
-0.025391
-0.054688
-0.064453
-0.089844
-0.099609
-0.093750
-0.119140
-0.119140
-0.119140
-0.119140
-0.103520
-0.099609
-0.115230
-0.103520
-0.093750
-0.089844
-0.093750
-0.070312
-0.054688
-0.025391
-0.009766
0.005859
0.044922
0.044922
0.070312
0.085938
0.070312
0.031250
-0.013672
-0.044922
-0.083984
-0.099609
-0.109380
-0.093750
-0.093750
-0.099609
-0.089844
-0.009766
0.255860
0.625000
0.759770
0.525390
0.140620
-0.044922
-0.115230
-0.138670
-0.144530
-0.134770
-0.138670
-0.144530
-0.138670
-0.119140
-0.115230
-0.119140
-0.109380
-0.089844
-0.080078
-0.083984
-0.080078
-0.064453
-0.048828
-0.035156
-0.025391
-0.003906
0.025391
0.041016
0.070312
0.089844
0.115230
0.134770
0.150390
0.175780
0.179690
0.166020
0.150390
0.134770
0.099609
0.085938
0.041016
0.009766
-0.019531
-0.044922
-0.080078
-0.083984
-0.093750
-0.103520
-0.103520
-0.109380
-0.115230
-0.134770
-0.115230
-0.119140
-0.119140
-0.109380
-0.103520
-0.093750
-0.083984
-0.074219
-0.064453
-0.035156
-0.003906
0.015625
0.031250
0.019531
0.060547
0.064453
0.015625
-0.025391
-0.074219
-0.115230
-0.144530
-0.148440
-0.154300
-0.144530
-0.144530
-0.134770
-0.148440
0.080078
0.375000
0.640620
0.654300
0.205080
-0.029297
-0.144530
-0.199220
-0.189450
-0.189450
-0.189450
-0.199220
-0.199220
-0.189450
-0.169920
-0.183590
-0.169920
-0.164060
-0.160160
-0.154300
-0.144530
-0.134770
-0.125000
-0.128910
-0.115230
-0.109380
-0.093750
-0.080078
-0.054688
-0.013672
0.009766
0.035156
0.050781
0.060547
0.054688
0.070312
0.054688
0.044922
0.009766
-0.009766
-0.035156
-0.058594
-0.093750
-0.103520
-0.134770
-0.144530
-0.164060
-0.179690
-0.199220
-0.189450
-0.189450
-0.183590
-0.179690
-0.183590
-0.179690
-0.199220
-0.189450
-0.183590
-0.160160
-0.154300
-0.144530
-0.138670
-0.109380
-0.099609
-0.064453
-0.058594
-0.048828
-0.029297
-0.058594
-0.093750
-0.128910
-0.173830
-0.214840
-0.234380
-0.240230
-0.244140
-0.234380
-0.240230
-0.234380
-0.173830
0.050781
0.359380
0.560550
0.435550
0.041016
-0.164060
-0.244140
-0.263670
-0.263670
-0.273440
-0.279300
-0.273440
-0.273440
-0.269530
-0.259770
-0.253910
-0.234380
-0.214840
-0.193360
-0.189450
-0.173830
-0.169920
-0.160160
-0.144530
-0.128910
-0.115230
-0.093750
-0.083984
-0.064453
-0.029297
-0.003906
0.015625
0.031250
0.044922
0.044922
0.044922
0.025391
0.009766
-0.025391
-0.070312
-0.093750
-0.103520
-0.138670
-0.169920
-0.193360
-0.224610
-0.240230
-0.253910
-0.259770
-0.250000
-0.234380
-0.228520
-0.224610
-0.234380
-0.244140
-0.234380
-0.234380
-0.234380
-0.224610
-0.234380
-0.193360
-0.160160
-0.148440
-0.160160
-0.115230
-0.099609
-0.044922
-0.025391
-0.070312
-0.115230
-0.148440
-0.189450
-0.228520
-0.250000
-0.259770
-0.244140
-0.234380
-0.240230
-0.208980
-0.093750
0.166020
0.525390
0.664060
0.425780
0.009766
-0.189450
-0.240230
-0.269530
-0.263670
-0.289060
-0.285160
-0.269530
-0.273440
-0.234380
-0.228520
-0.263670
-0.259770
-0.253910
-0.228520
-0.208980
-0.214840
-0.189450
-0.193360
-0.208980
-0.160160
-0.125000
-0.089844
-0.070312
-0.029297
0.019531
0.025391
-0.003906
0.025391
0.060547
0.080078
0.076172
0.085938
0.080078
0.015625
-0.048828
-0.064453
-0.054688
-0.109380
-0.125000
-0.154300
-0.138670
-0.169920
-0.164060
-0.169920
-0.193360
-0.189450
-0.160160
-0.160160
-0.144530
-0.173830
-0.189450
-0.134770
-0.115230
-0.093750
-0.119140
-0.125000
-0.070312
-0.029297
-0.048828
-0.035156
0.019531
0.041016
0.050781
0.005859
-0.048828
-0.074219
-0.154300
-0.173830
-0.164060
-0.173830
-0.138670
-0.148440
-0.154300
-0.128910
0.041016
0.371090
0.730470
0.824220
0.480470
0.095703
-0.093750
-0.154300
-0.179690
-0.189450
-0.125000
-0.160160
-0.228520
-0.169920
-0.154300
-0.125000
-0.160160
-0.179690
-0.103520
-0.099609
-0.109380
-0.074219
-0.074219
-0.083984
-0.074219
-0.058594
0.000000
-0.003906
0.041016
0.089844
0.134770
0.144530
0.150390
0.195310
0.210940
0.224610
0.220700
0.205080
0.175780
0.144530
0.115230
0.085938
0.054688
0.025391
0.000000
-0.029297
-0.058594
-0.083984
-0.093750
-0.093750
-0.089844
-0.093750
-0.093750
-0.089844
-0.089844
-0.074219
-0.074219
-0.064453
-0.054688
-0.048828
-0.025391
0.009766
0.041016
0.035156
0.064453
0.089844
0.111330
0.134770
0.140620
0.111330
0.076172
0.025391
-0.013672
-0.039062
-0.048828
-0.054688
-0.054688
-0.048828
-0.044922
-0.009766
0.214840
0.544920
0.830080
0.855470
0.404300
0.085938
-0.029297
-0.070312
-0.070312
-0.074219
-0.083984
-0.093750
-0.099609
-0.093750
-0.064453
-0.070312
-0.048828
-0.039062
-0.029297
-0.019531
-0.003906
0.009766
0.009766
0.035156
0.044922
0.050781
0.076172
0.115230
0.144530
0.175780
0.201170
0.224610
0.250000
0.265620
0.275390
0.269530
0.255860
0.240230
0.210940
0.189450
0.156250
0.125000
0.095703
0.064453
0.050781
0.035156
0.019531
0.005859
0.000000
0.005859
-0.009766
-0.009766
-0.013672
0.005859
0.005859
0.009766
0.000000
0.015625
0.041016
0.060547
0.070312
0.089844
0.105470
0.140620
0.160160
0.169920
0.185550
0.160160
0.130860
0.095703
0.035156
0.005859
-0.009766
-0.013672
-0.009766
-0.019531
-0.009766
-0.019531
0.085938
0.339840
0.689450
0.849610
0.664060
0.234380
0.035156
-0.035156
-0.048828
-0.048828
-0.048828
-0.054688
-0.048828
-0.054688
-0.058594
-0.044922
-0.039062
-0.048828
-0.035156
-0.025391
0.000000
-0.003906
0.015625
0.031250
0.025391
0.050781
0.070312
0.099609
0.134770
0.169920
0.210940
0.240230
0.255860
0.275390
0.294920
0.285160
0.279300
0.259770
0.240230
0.195310
0.175780
0.140620
0.105470
0.076172
0.060547
0.041016
0.031250
0.019531
0.009766
0.000000
0.000000
0.005859
0.005859
0.000000
0.005859
0.009766
0.005859
0.019531
0.019531
0.015625
0.041016
0.076172
0.089844
0.111330
0.134770
0.140620
0.160160
0.179690
0.156250
0.121090
0.085938
0.035156
-0.003906
-0.009766
-0.025391
-0.029297
-0.009766
-0.013672
-0.019531
0.064453
0.291020
0.615230
0.804690
0.660160
0.255860
0.054688
-0.019531
-0.035156
-0.048828
-0.048828
-0.044922
-0.035156
-0.025391
-0.035156
-0.019531
-0.013672
-0.003906
0.000000
0.015625
0.000000
0.019531
0.025391
0.041016
0.044922
0.060547
0.076172
0.089844
0.111330
0.144530
0.185550
0.205080
0.224610
0.250000
0.255860
0.265620
0.259770
0.246090
0.210940
0.201170
0.166020
0.144530
0.111330
0.076172
0.054688
0.025391
0.031250
0.015625
0.009766
0.000000
0.009766
0.000000
0.000000
-0.009766
0.000000
0.000000
0.000000
0.005859
0.000000
0.019531
0.044922
0.050781
0.076172
0.085938
0.099609
0.125000
0.140620
0.166020
0.156250
0.121090
0.080078
0.044922
0.005859
-0.029297
-0.054688
-0.054688
-0.048828
-0.054688
-0.044922
0.005859
0.210940
0.529300
0.765620
0.689450
0.294920
0.060547
-0.025391
-0.064453
-0.054688
-0.039062
-0.048828
-0.054688
-0.039062
-0.048828
-0.029297
-0.013672
-0.003906
0.000000
0.005859
0.019531
0.015625
0.041016
0.044922
0.054688
0.064453
0.085938
0.105470
0.121090
0.160160
0.195310
0.201170
0.230470
0.255860
0.259770
0.265620
0.275390
0.250000
0.224610
0.201170
0.179690
0.144530
0.121090
0.095703
0.064453
0.041016
0.035156
0.025391
0.019531
0.005859
0.000000
0.000000
0.000000
0.000000
0.005859
0.015625
0.009766
0.025391
0.035156
0.044922
0.041016
0.076172
0.099609
0.111330
0.134770
0.166020
0.166020
0.189450
0.201170
0.160160
0.125000
0.076172
0.031250
0.000000
-0.013672
-0.013672
-0.009766
-0.025391
-0.009766
-0.013672
0.169920
0.435550
0.734380
0.769530
0.390620
0.121090
-0.009766
-0.048828
-0.074219
-0.070312
-0.058594
-0.070312
-0.070312
-0.064453
-0.074219
-0.048828
-0.029297
-0.025391
-0.025391
-0.009766
0.000000
0.000000
0.019531
0.031250
0.044922
0.060547
0.070312
0.085938
0.111330
0.144530
0.166020
0.185550
0.205080
0.220700
0.230470
0.230470
0.220700
0.201170
0.179690
0.144530
0.115230
0.095703
0.076172
0.054688
0.025391
0.000000
-0.003906
-0.009766
-0.019531
-0.025391
-0.019531
-0.025391
-0.029297
-0.029297
-0.029297
-0.025391
-0.019531
-0.009766
-0.025391
-0.009766
0.000000
0.009766
0.015625
0.031250
0.070312
0.080078
0.089844
0.121090
0.125000
0.076172
0.009766
-0.025391
-0.054688
-0.089844
-0.109380
-0.099609
-0.089844
-0.074219
-0.048828
0.070312
0.314450
0.640620
0.759770
0.535160
0.166020
-0.044922
-0.115230
-0.119140
-0.099609
-0.125000
-0.138670
-0.115230
-0.103520
-0.125000
-0.109380
-0.103520
-0.125000
-0.134770
-0.089844
-0.070312
-0.064453
-0.074219
-0.054688
-0.029297
-0.013672
-0.003906
0.009766
0.019531
0.060547
0.115230
0.144530
0.150390
0.160160
0.185550
0.185550
0.160160
0.166020
0.140620
0.085938
0.070312
0.019531
-0.003906
0.015625
-0.035156
-0.064453
-0.048828
-0.054688
-0.093750
-0.103520
-0.115230
-0.119140
-0.115230
-0.083984
-0.074219
-0.093750
-0.083984
-0.064453
-0.080078
-0.089844
-0.048828
-0.013672
0.015625
-0.003906
0.015625
0.080078
0.095703
0.085938
0.111330
0.095703
0.015625
-0.054688
-0.080078
-0.093750
-0.099609
-0.115230
-0.093750
-0.099609
-0.074219
-0.039062
0.160160
0.519530
0.839840
0.865230
0.375000
0.060547
-0.074219
-0.119140
-0.128910
-0.138670
-0.169920
-0.189450
-0.119140
-0.154300
-0.169920
-0.099609
-0.148440
-0.173830
-0.109380
-0.054688
-0.044922
-0.119140
-0.083984
-0.048828
-0.054688
-0.025391
-0.013672
0.035156
0.054688
0.115230
0.140620
0.111330
0.175780
0.169920
0.210940
0.210940
0.169920
0.140620
0.156250
0.134770
0.054688
0.000000
-0.003906
0.005859
-0.083984
-0.103520
-0.035156
-0.089844
-0.099609
-0.083984
-0.138670
-0.144530
-0.115230
-0.119140
-0.138670
-0.109380
-0.099609
-0.119140
-0.109380
-0.070312
-0.029297
-0.009766
0.000000
0.015625
0.044922
0.064453
0.085938
0.089844
0.054688
0.019531
-0.039062
-0.093750
-0.128910
-0.138670
-0.134770
-0.138670
-0.125000
-0.119140
-0.103520
0.060547
0.365230
0.740230
0.830080
0.544920
0.121090
-0.083984
-0.148440
-0.164060
-0.164060
-0.164060
-0.164060
-0.154300
-0.160160
-0.164060
-0.134770
-0.119140
-0.119140
-0.115230
-0.103520
-0.093750
-0.099609
-0.074219
-0.070312
-0.039062
-0.029297
-0.013672
0.009766
0.041016
0.070312
0.095703
0.125000
0.140620
0.150390
0.166020
0.169920
0.156250
0.140620
0.121090
0.085938
0.050781
0.015625
-0.009766
-0.035156
-0.054688
-0.080078
-0.083984
-0.099609
-0.093750
-0.109380
-0.119140
-0.128910
-0.134770
-0.119140
-0.119140
-0.119140
-0.115230
-0.109380
-0.103520
-0.093750
-0.080078
-0.054688
-0.035156
-0.013672
0.005859
0.019531
0.031250
0.044922
0.009766
-0.019531
-0.064453
-0.109380
-0.134770
-0.144530
-0.144530
-0.144530
-0.138670
-0.138670
-0.109380
0.105470
0.435550
0.714840
0.750000
0.291020
-0.013672
-0.134770
-0.179690
-0.183590
-0.173830
-0.189450
-0.179690
-0.183590
-0.183590
-0.173830
-0.154300
-0.148440
-0.138670
-0.134770
-0.115230
-0.119140
-0.103520
-0.099609
-0.080078
-0.064453
-0.048828
-0.029297
-0.019531
0.025391
0.054688
0.085938
0.105470
0.130860
0.144530
0.150390
0.140620
0.130860
0.111330
0.080078
0.044922
0.005859
-0.013672
-0.035156
-0.058594
-0.080078
-0.099609
-0.115230
-0.128910
-0.138670
-0.134770
-0.138670
-0.144530
-0.144530
-0.138670
-0.128910
-0.138670
-0.125000
-0.128910
-0.115230
-0.099609
-0.074219
-0.048828
-0.044922
-0.019531
0.005859
0.015625
0.041016
0.044922
0.009766
-0.029297
-0.074219
-0.119140
-0.144530
-0.154300
-0.154300
-0.160160
-0.154300
-0.160160
-0.115230
0.080078
0.394530
0.660160
0.679690
0.250000
-0.025391
-0.128910
-0.179690
-0.173830
-0.183590
-0.179690
-0.183590
-0.173830
-0.169920
-0.169920
-0.169920
-0.148440
-0.134770
-0.119140
-0.115230
-0.119140
-0.103520
-0.093750
-0.083984
-0.070312
-0.048828
-0.029297
0.000000
0.015625
0.035156
0.064453
0.099609
0.111330
0.140620
0.140620
0.130860
0.121090
0.111330
0.070312
0.044922
0.025391
-0.013672
-0.044922
-0.080078
-0.089844
-0.109380
-0.125000
-0.128910
-0.125000
-0.144530
-0.138670
-0.144530
-0.138670
-0.144530
-0.144530
-0.128910
-0.144530
-0.134770
-0.119140
-0.115230
-0.083984
-0.058594
-0.054688
-0.035156
-0.003906
0.000000
0.041016
0.044922
0.009766
-0.039062
-0.083984
-0.128910
-0.144530
-0.160160
-0.164060
-0.160160
-0.148440
-0.144530
-0.148440
0.064453
0.349610
0.640620
0.675780
0.250000
-0.019531
-0.134770
-0.173830
-0.169920
-0.189450
-0.183590
-0.189450
-0.173830
-0.183590
-0.164060
-0.160160
-0.148440
-0.148440
-0.144530
-0.134770
-0.103520
-0.103520
-0.093750
-0.089844
-0.074219
-0.070312
-0.054688
-0.009766
0.015625
0.031250
0.060547
0.080078
0.099609
0.095703
0.130860
0.121090
0.099609
0.080078
0.070312
0.035156
0.000000
-0.009766
-0.039062
-0.074219
-0.099609
-0.119140
-0.119140
-0.119140
-0.144530
-0.144530
-0.138670
-0.144530
-0.138670
-0.138670
-0.144530
-0.128910
-0.148440
-0.125000
-0.128910
-0.103520
-0.099609
-0.070312
-0.054688
-0.035156
-0.003906
0.009766
0.025391
0.031250
0.015625
-0.029297
-0.070312
-0.109380
-0.138670
-0.154300
-0.164060
-0.160160
-0.164060
-0.160160
-0.164060
0.019531
0.300780
0.605470
0.654300
0.275390
-0.003906
-0.134770
-0.173830
-0.183590
-0.179690
-0.189450
-0.189450
-0.173830
-0.173830
-0.173830
-0.183590
-0.154300
-0.138670
-0.144530
-0.134770
-0.115230
-0.115230
-0.109380
-0.089844
-0.089844
-0.064453
-0.029297
-0.019531
0.005859
0.031250
0.054688
0.076172
0.105470
0.121090
0.125000
0.121090
0.125000
0.105470
0.076172
0.044922
0.019531
-0.003906
-0.048828
-0.070312
-0.083984
-0.103520
-0.103520
-0.125000
-0.128910
-0.134770
-0.144530
-0.138670
-0.128910
-0.119140
-0.134770
-0.125000
-0.119140
-0.128910
-0.109380
-0.083984
-0.083984
-0.058594
-0.058594
-0.039062
-0.013672
-0.003906
0.041016
0.044922
0.015625
-0.013672
-0.058594
-0.109380
-0.138670
-0.160160
-0.160160
-0.144530
-0.160160
-0.154300
-0.144530
-0.025391
0.234380
0.564450
0.644530
0.384770
0.050781
-0.093750
-0.154300
-0.164060
-0.173830
-0.179690
-0.173830
-0.169920
-0.164060
-0.154300
-0.144530
-0.144530
-0.125000
-0.115230
-0.109380
-0.093750
-0.115230
-0.119140
-0.109380
-0.109380
-0.083984
-0.048828
-0.029297
-0.003906
0.000000
0.031250
0.070312
0.089844
0.095703
0.099609
0.111330
0.115230
0.115230
0.099609
0.060547
0.025391
-0.009766
-0.039062
-0.058594
-0.093750
-0.125000
-0.148440
-0.144530
-0.138670
-0.128910
-0.119140
-0.119140
-0.128910
-0.134770
-0.119140
-0.103520
-0.128910
-0.115230
-0.099609
-0.099609
-0.089844
-0.054688
-0.025391
-0.025391
0.005859
0.035156
0.044922
0.060547
0.031250
0.019531
-0.003906
-0.058594
-0.119140
-0.134770
-0.138670
-0.138670
-0.128910
-0.125000
-0.128910
-0.003906
0.250000
0.609380
0.789060
0.570310
0.130860
-0.080078
-0.160160
-0.164060
-0.169920
-0.189450
-0.199220
-0.189450
-0.148440
-0.138670
-0.128910
-0.138670
-0.160160
-0.148440
-0.128910
-0.103520
-0.080078
-0.048828
-0.080078
-0.089844
-0.035156
-0.048828
-0.044922
0.041016
0.085938
0.085938
0.089844
0.134770
0.201170
0.210940
0.160160
0.150390
0.130860
0.156250
0.125000
0.085938
0.064453
0.025391
-0.039062
-0.035156
-0.048828
-0.054688
-0.048828
-0.054688
-0.083984
-0.074219
-0.109380
-0.119140
-0.064453
-0.044922
-0.064453
-0.089844
-0.054688
-0.048828
-0.039062
-0.048828
-0.003906
0.019531
0.050781
0.085938
0.099609
0.134770
0.140620
0.089844
0.076172
0.105470
-0.003906
-0.099609
-0.058594
-0.083984
-0.093750
-0.074219
-0.039062
-0.099609
-0.119140
0.275390
0.650390
0.904300
0.919920
0.294920
0.000000
-0.083984
-0.138670
-0.164060
-0.173830
-0.103520
-0.119140
-0.109380
-0.125000
-0.083984
-0.074219
-0.144530
-0.148440
-0.103520
-0.093750
-0.080078
-0.054688
-0.029297
-0.003906
0.000000
-0.048828
0.005859
0.041016
0.044922
0.099609
0.150390
0.185550
0.210940
0.220700
0.230470
0.224610
0.205080
0.179690
0.150390
0.111330
0.080078
0.044922
0.009766
-0.035156
-0.054688
-0.070312
-0.070312
-0.074219
-0.089844
-0.093750
-0.089844
-0.083984
-0.083984
-0.093750
-0.099609
-0.093750
-0.089844
-0.080078
-0.064453
-0.048828
-0.025391
-0.003906
0.000000
0.035156
0.064453
0.060547
0.089844
0.099609
0.076172
0.044922
0.005859
-0.039062
-0.070312
-0.089844
-0.093750
-0.083984
-0.080078
-0.089844
-0.029297
0.224610
0.560550
0.804690
0.820310
0.304690
0.025391
-0.083984
-0.125000
-0.128910
-0.144530
-0.144530
-0.119140
-0.144530
-0.138670
-0.134770
-0.119140
-0.115230
-0.119140
-0.109380
-0.093750
-0.074219
-0.074219
-0.074219
-0.054688
-0.029297
-0.025391
-0.013672
0.031250
0.044922
0.080078
0.111330
0.144530
0.156250
0.144530
0.179690
0.169920
0.156250
0.134770
0.105470
0.070312
0.044922
0.005859
-0.019531
-0.048828
-0.070312
-0.099609
-0.115230
-0.109380
-0.103520
-0.119140
-0.119140
-0.109380
-0.119140
-0.125000
-0.119140
-0.134770
-0.115230
-0.103520
-0.083984
-0.080078
-0.058594
-0.048828
-0.025391
0.009766
0.019531
0.041016
0.031250
0.000000
-0.029297
-0.093750
-0.119140
-0.138670
-0.154300
-0.154300
-0.148440
-0.154300
-0.148440
-0.109380
0.125000
0.464840
0.695310
0.599610
0.175780
-0.054688
-0.144530
-0.164060
-0.183590
-0.189450
-0.179690
-0.189450
-0.179690
-0.164060
-0.169920
-0.164060
-0.148440
-0.154300
-0.138670
-0.128910
-0.115230
-0.099609
-0.115230
-0.080078
-0.064453
-0.048828
-0.044922
-0.019531
0.035156
0.044922
0.070312
0.099609
0.121090
0.140620
0.140620
0.140620
0.144530
0.099609
0.070312
0.041016
0.005859
-0.035156
-0.029297
-0.064453
-0.080078
-0.109380
-0.125000
-0.119140
-0.138670
-0.148440
-0.164060
-0.138670
-0.148440
-0.164060
-0.183590
-0.218750
-0.205080
-0.208980
-0.183590
-0.169920
-0.144530
-0.148440
-0.119140
-0.083984
-0.074219
-0.044922
-0.029297
-0.064453
-0.103520
-0.154300
-0.208980
-0.234380
-0.240230
-0.228520
-0.244140
-0.240230
-0.218750
-0.199220
-0.070312
0.214840
0.539060
0.605470
0.285160
-0.035156
-0.154300
-0.218750
-0.218750
-0.228520
-0.218750
-0.228520
-0.224610
-0.228520
-0.199220
-0.205080
-0.189450
-0.183590
-0.169920
-0.154300
-0.160160
-0.125000
-0.115230
-0.119140
-0.089844
-0.070312
-0.039062
-0.019531
0.031250
0.044922
0.085938
0.105470
0.111330
0.150390
0.156250
0.150390
0.140620
0.115230
0.080078
0.076172
0.044922
0.015625
0.005859
-0.003906
-0.044922
-0.064453
-0.074219
-0.083984
-0.074219
-0.083984
-0.074219
-0.093750
-0.070312
-0.093750
-0.074219
-0.058594
-0.048828
-0.048828
-0.035156
-0.019531
0.015625
0.019531
0.035156
0.070312
0.089844
0.099609
0.125000
0.115230
0.089844
0.060547
-0.003906
-0.029297
-0.048828
-0.048828
-0.070312
-0.064453
-0.039062
-0.029297
0.031250
0.240230
0.554690
0.765620
0.654300
0.265620
0.060547
-0.009766
-0.044922
-0.048828
-0.064453
-0.058594
-0.048828
-0.048828
-0.035156
-0.039062
-0.044922
-0.019531
0.000000
-0.003906
0.009766
0.005859
0.035156
0.041016
0.050781
0.064453
0.080078
0.095703
0.140620
0.175780
0.195310
0.220700
0.246090
0.259770
0.259770
0.275390
0.279300
0.275390
0.255860
0.220700
0.185550
0.160160
0.144530
0.115230
0.089844
0.070312
0.076172
0.050781
0.041016
0.031250
0.041016
0.031250
0.050781
0.044922
0.041016
0.041016
0.060547
0.064453
0.054688
0.080078
0.095703
0.125000
0.134770
0.156250
0.205080
0.210940
0.201170
0.240230
0.220700
0.179690
0.140620
0.089844
0.064453
0.050781
0.044922
0.035156
0.035156
0.070312
0.080078
0.201170
0.435550
0.775390
0.855470
0.589840
0.259770
0.115230
0.044922
0.041016
0.044922
0.015625
0.005859
0.019531
0.025391
0.005859
0.041016
0.041016
0.044922
0.050781
0.054688
0.060547
0.064453
0.070312
0.089844
0.095703
0.115230
0.121090
0.150390
0.169920
0.195310
0.210940
0.246090
0.265620
0.259770
0.275390
0.269530
0.255860
0.234380
0.220700
0.179690
0.160160
0.130860
0.111330
0.085938
0.060547
0.041016
0.005859
0.005859
0.009766
0.000000
-0.013672
0.000000
-0.003906
0.000000
0.000000
0.009766
0.000000
0.019531
0.009766
0.009766
0.044922
0.076172
0.070312
0.064453
0.115230
0.130860
0.144530
0.140620
0.121090
0.080078
0.031250
-0.003906
-0.029297
-0.048828
-0.064453
-0.070312
-0.074219
-0.054688
-0.029297
0.121090
0.380860
0.675780
0.724610
0.359380
0.085938
-0.025391
-0.080078
-0.099609
-0.103520
-0.109380
-0.093750
-0.099609
-0.103520
-0.093750
-0.093750
-0.089844
-0.080078
-0.074219
-0.070312
-0.048828
-0.029297
-0.013672
-0.003906
0.000000
0.019531
0.035156
0.054688
0.080078
0.095703
0.115230
0.140620
0.160160
0.179690
0.185550
0.185550
0.166020
0.140620
0.115230
0.085938
0.054688
0.025391
0.019531
0.031250
-0.013672
-0.048828
-0.048828
-0.058594
-0.093750
-0.109380
-0.099609
-0.074219
-0.080078
-0.089844
-0.080078
-0.074219
-0.054688
-0.074219
-0.080078
-0.058594
-0.048828
-0.039062
-0.003906
0.019531
0.025391
0.009766
0.076172
0.085938
0.009766
-0.009766
-0.044922
-0.093750
-0.128910
-0.103520
-0.138670
-0.169920
-0.173830
-0.125000
-0.083984
0.095703
0.404300
0.714840
0.740230
0.205080
-0.083984
-0.173830
-0.179690
-0.214840
-0.205080
-0.218750
-0.205080
-0.199220
-0.234380
-0.224610
-0.199220
-0.214840
-0.228520
-0.164060
-0.164060
-0.189450
-0.183590
-0.134770
-0.125000
-0.160160
-0.109380
-0.115230
-0.048828
-0.025391
-0.009766
0.025391
0.025391
0.050781
0.054688
0.070312
0.054688
0.054688
0.031250
0.009766
-0.048828
-0.099609
-0.089844
-0.125000
-0.169920
-0.208980
-0.218750
-0.214840
-0.218750
-0.228520
-0.244140
-0.269530
-0.234380
-0.214840
-0.240230
-0.263670
-0.269530
-0.234380
-0.218750
-0.205080
-0.189450
-0.193360
-0.214840
-0.160160
-0.119140
-0.099609
-0.119140
-0.093750
-0.039062
-0.103520
-0.154300
-0.205080
-0.269530
-0.298830
-0.353520
-0.263670
-0.253910
-0.285160
-0.298830
-0.244140
-0.025391
0.380860
0.724610
0.750000
0.179690
-0.103520
-0.193360
-0.218750
-0.285160
-0.289060
-0.250000
-0.228520
-0.250000
-0.259770
-0.240230
-0.214840
-0.259770
-0.294920
-0.214840
-0.208980
-0.234380
-0.169920
-0.214840
-0.218750
-0.179690
-0.160160
-0.189450
-0.099609
-0.019531
-0.064453
-0.025391
0.000000
-0.013672
0.031250
0.041016
0.019531
0.009766
-0.013672
-0.039062
-0.074219
-0.103520
-0.134770
-0.169920
-0.214840
-0.240230
-0.259770
-0.273440
-0.285160
-0.279300
-0.285160
-0.294920
-0.285160
-0.285160
-0.294920
-0.298830
-0.285160
-0.263670
-0.273440
-0.273440
-0.259770
-0.240230
-0.218750
-0.199220
-0.173830
-0.144530
-0.138670
-0.115230
-0.119140
-0.138670
-0.183590
-0.218750
-0.273440
-0.298830
-0.314450
-0.314450
-0.304690
-0.294920
-0.298830
-0.244140
-0.003906
0.359380
0.615230
0.525390
0.080078
-0.193360
-0.318360
-0.339840
-0.339840
-0.333980
-0.343750
-0.330080
-0.339840
-0.333980
-0.324220
-0.330080
-0.304690
-0.298830
-0.304690
-0.285160
-0.269530
-0.259770
-0.259770
-0.240230
-0.228520
-0.193360
-0.164060
-0.138670
-0.125000
-0.083984
-0.054688
-0.019531
0.000000
-0.003906
0.009766
0.005859
-0.003906
-0.044922
-0.070312
-0.093750
-0.125000
-0.154300
-0.193360
-0.234380
-0.244140
-0.253910
-0.269530
-0.263670
-0.263670
-0.269530
-0.285160
-0.289060
-0.259770
-0.273440
-0.279300
-0.259770
-0.259770
-0.253910
-0.259770
-0.240230
-0.214840
-0.218750
-0.169920
-0.160160
-0.144530
-0.125000
-0.119140
-0.148440
-0.183590
-0.228520
-0.263670
-0.289060
-0.304690
-0.285160
-0.289060
-0.298830
-0.294920
-0.234380
0.035156
0.371090
0.583980
0.460940
0.031250
-0.189450
-0.273440
-0.304690
-0.304690
-0.304690
-0.304690
-0.314450
-0.298830
-0.285160
-0.289060
-0.273440
-0.263670
-0.259770
-0.273440
-0.240230
-0.224610
-0.214840
-0.218750
-0.193360
-0.169920
-0.148440
-0.128910
-0.099609
-0.080078
-0.044922
-0.025391
0.000000
0.025391
0.035156
0.041016
0.044922
0.041016
0.005859
-0.019531
-0.044922
-0.083984
-0.103520
-0.128910
-0.169920
-0.169920
-0.189450
-0.199220
-0.189450
-0.193360
-0.199220
-0.189450
-0.183590
-0.199220
-0.193360
-0.189450
-0.164060
-0.169920
-0.164060
-0.148440
-0.115230
-0.093750
-0.074219
-0.080078
-0.029297
-0.019531
0.005859
0.025391
-0.025391
-0.048828
-0.115230
-0.160160
-0.205080
-0.240230
-0.234380
-0.234380
-0.228520
-0.234380
-0.218750
-0.058594
0.210940
0.535160
0.595700
0.265620
-0.039062
-0.173830
-0.218750
-0.244140
-0.240230
-0.250000
-0.234380
-0.228520
-0.234380
-0.224610
-0.208980
-0.205080
-0.193360
-0.183590
-0.164060
-0.154300
-0.164060
-0.144530
-0.144530
-0.109380
-0.074219
-0.064453
-0.019531
-0.003906
0.019531
0.054688
0.076172
0.085938
0.121090
0.134770
0.121090
0.115230
0.105470
0.070312
0.031250
0.015625
-0.019531
-0.039062
-0.064453
-0.083984
-0.093750
-0.083984
-0.099609
-0.115230
-0.119140
-0.109380
-0.115230
-0.103520
-0.103520
-0.103520
-0.083984
-0.089844
-0.074219
-0.070312
-0.044922
-0.013672
-0.019531
0.000000
0.015625
0.064453
0.070312
0.085938
0.080078
0.035156
0.009766
-0.029297
-0.080078
-0.103520
-0.109380
-0.103520
-0.119140
-0.109380
-0.115230
-0.083984
0.105470
0.390620
0.650390
0.679690
0.265620
0.009766
-0.083984
-0.119140
-0.115230
-0.138670
-0.148440
-0.138670
-0.134770
-0.148440
-0.125000
-0.128910
-0.109380
-0.125000
-0.103520
-0.093750
-0.089844
-0.058594
-0.070312
-0.039062
-0.019531
-0.025391
0.005859
0.025391
0.060547
0.095703
0.125000
0.144530
0.156250
0.175780
0.185550
0.179690
0.160160
0.150390
0.121090
0.085938
0.076172
0.050781
0.015625
-0.003906
0.000000
-0.035156
-0.044922
-0.048828
-0.064453
-0.070312
-0.048828
-0.048828
-0.048828
-0.048828
-0.039062
-0.039062
-0.039062
-0.029297
-0.013672
0.005859
0.035156
0.060547
0.070312
0.085938
0.105470
0.115230
0.134770
0.140620
0.111330
0.070312
0.031250
-0.044922
-0.074219
-0.083984
-0.074219
-0.064453
-0.070312
-0.048828
-0.003906
0.214840
0.505860
0.753910
0.654300
0.285160
0.076172
-0.029297
-0.074219
-0.080078
-0.058594
-0.089844
-0.093750
-0.083984
-0.093750
-0.083984
-0.064453
-0.048828
-0.058594
-0.074219
-0.048828
-0.048828
-0.029297
0.015625
0.009766
0.015625
0.031250
0.089844
0.115230
0.105470
0.099609
0.134770
0.150390
0.214840
0.224610
0.185550
0.250000
0.205080
0.179690
0.185550
0.134770
0.099609
0.054688
0.019531
0.044922
0.005859
-0.048828
-0.003906
0.015625
-0.035156
-0.039062
0.015625
-0.048828
-0.054688
-0.003906
-0.025391
-0.009766
0.031250
-0.009766
-0.029297
-0.013672
0.035156
0.041016
0.070312
0.099609
0.111330
0.085938
0.160160
0.205080
0.111330
0.070312
0.031250
-0.009766
-0.064453
-0.025391
-0.003906
-0.039062
-0.089844
-0.025391
-0.013672
0.125000
0.460940
0.894530
0.980470
0.564450
0.125000
-0.013672
-0.099609
-0.109380
-0.080078
-0.128910
-0.160160
-0.164060
-0.109380
-0.128910
-0.109380
-0.144530
-0.029297
-0.099609
-0.144530
-0.093750
-0.044922
-0.039062
-0.134770
-0.039062
0.060547
0.031250
-0.003906
0.005859
0.115230
0.140620
0.111330
0.166020
0.230470
0.195310
0.144530
0.201170
0.205080
0.125000
0.085938
0.060547
-0.013672
-0.074219
-0.035156
-0.019531
-0.138670
-0.119140
-0.128910
-0.134770
-0.164060
-0.125000
-0.183590
-0.199220
-0.125000
-0.179690
-0.183590
-0.164060
-0.193360
-0.173830
-0.119140
-0.093750
-0.074219
-0.083984
-0.064453
-0.025391
-0.013672
0.009766
0.019531
-0.013672
-0.054688
-0.103520
-0.148440
-0.173830
-0.183590
-0.189450
-0.183590
-0.183590
-0.189450
-0.164060
0.050781
0.410160
0.814450
0.888670
0.464840
0.015625
-0.193360
-0.250000
-0.259770
-0.269530
-0.273440
-0.269530
-0.263670
-0.259770
-0.253910
-0.244140
-0.240230
-0.224610
-0.208980
-0.193360
-0.189450
-0.179690
-0.164060
-0.160160
-0.144530
-0.128910
-0.115230
-0.089844
-0.054688
-0.029297
0.000000
0.031250
0.050781
0.060547
0.070312
0.064453
0.044922
0.025391
-0.003906
-0.039062
-0.080078
-0.119140
-0.154300
-0.189450
-0.218750
-0.234380
-0.250000
-0.259770
-0.273440
-0.285160
-0.285160
-0.285160
-0.294920
-0.294920
-0.289060
-0.285160
-0.285160
-0.279300
-0.263670
-0.234380
-0.214840
-0.205080
-0.173830
-0.154300
-0.138670
-0.119140
-0.109380
-0.144530
-0.189450
-0.240230
-0.285160
-0.308590
-0.330080
-0.330080
-0.324220
-0.330080
-0.343750
-0.304690
-0.070312
0.291020
0.580080
0.628910
0.115230
-0.208980
-0.339840
-0.378910
-0.388670
-0.404300
-0.404300
-0.408200
-0.394530
-0.394530
-0.404300
-0.398440
-0.388670
-0.369140
-0.384770
-0.359380
-0.349610
-0.333980
-0.330080
-0.318360
-0.304690
-0.285160
-0.273440
-0.234380
-0.193360
-0.169920
-0.154300
-0.134770
-0.119140
-0.109380
-0.093750
-0.089844
-0.109380
-0.115230
-0.160160
-0.193360
-0.228520
-0.250000
-0.304690
-0.318360
-0.333980
-0.343750
-0.353520
-0.378910
-0.369140
-0.378910
-0.375000
-0.363280
-0.353520
-0.353520
-0.363280
-0.349610
-0.353520
-0.363280
-0.343750
-0.314450
-0.289060
-0.253910
-0.259770
-0.208980
-0.205080
-0.189450
-0.164060
-0.173830
-0.199220
-0.240230
-0.289060
-0.324220
-0.343750
-0.349610
-0.343750
-0.349610
-0.353520
-0.339840
-0.269530
-0.029297
0.320310
0.519530
0.339840
-0.064453
-0.253910
-0.339840
-0.375000
-0.363280
-0.353520
-0.375000
-0.388670
-0.398440
-0.394530
-0.384770
-0.375000
-0.378910
-0.359380
-0.339840
-0.330080
-0.324220
-0.333980
-0.294920
-0.263670
-0.250000
-0.234380
-0.214840
-0.199220
-0.164060
-0.134770
-0.115230
-0.089844
-0.048828
-0.054688
-0.044922
-0.039062
-0.048828
-0.080078
-0.115230
-0.125000
-0.164060
-0.189450
-0.214840
-0.240230
-0.263670
-0.289060
-0.279300
-0.289060
-0.285160
-0.279300
-0.285160
-0.285160
-0.285160
-0.269530
-0.263670
-0.269530
-0.259770
-0.250000
-0.253910
-0.224610
-0.189450
-0.169920
-0.183590
-0.125000
-0.103520
-0.109380
-0.058594
-0.089844
-0.138670
-0.169920
-0.193360
-0.234380
-0.263670
-0.250000
-0.244140
-0.244140
-0.250000
-0.228520
-0.128910
0.121090
0.460940
0.580080
0.314450
-0.003906
-0.173830
-0.234380
-0.234380
-0.250000
-0.240230
-0.240230
-0.250000
-0.259770
-0.228520
-0.208980
-0.205080
-0.193360
-0.199220
-0.183590
-0.173830
-0.164060
-0.160160
-0.148440
-0.125000
-0.099609
-0.070312
-0.044922
-0.019531
0.000000
0.041016
0.050781
0.076172
0.111330
0.115230
0.095703
0.080078
0.089844
0.060547
0.044922
0.025391
-0.009766
-0.048828
-0.054688
-0.064453
-0.099609
-0.109380
-0.125000
-0.125000
-0.128910
-0.109380
-0.103520
-0.119140
-0.099609
-0.119140
-0.083984
-0.080078
-0.089844
-0.074219
-0.054688
-0.029297
-0.003906
-0.009766
0.025391
0.054688
0.070312
0.089844
0.105470
0.076172
0.044922
0.015625
-0.054688
-0.083984
-0.083984
-0.099609
-0.093750
-0.080078
-0.093750
-0.070312
0.060547
0.310550
0.634770
0.720700
0.435550
0.121090
-0.029297
-0.074219
-0.093750
-0.093750
-0.099609
-0.109380
-0.080078
-0.093750
-0.099609
-0.103520
-0.064453
-0.070312
-0.064453
-0.035156
-0.039062
-0.048828
-0.029297
-0.019531
0.009766
0.025391
0.019531
0.054688
0.095703
0.115230
0.140620
0.169920
0.189450
0.201170
0.189450
0.205080
0.214840
0.185550
0.169920
0.140620
0.125000
0.080078
0.050781
0.044922
0.031250
0.019531
0.000000
-0.009766
-0.003906
-0.009766
-0.019531
-0.025391
-0.013672
0.000000
0.005859
0.000000
0.009766
0.015625
0.015625
0.019531
0.054688
0.064453
0.085938
0.076172
0.140620
0.150390
0.169920
0.175780
0.156250
0.105470
0.064453
0.025391
0.000000
-0.019531
-0.025391
-0.013672
-0.039062
-0.025391
0.005859
0.111330
0.365230
0.685550
0.759770
0.455080
0.169920
0.025391
-0.035156
-0.044922
-0.039062
-0.064453
-0.054688
-0.048828
-0.058594
-0.064453
-0.044922
-0.035156
-0.029297
-0.013672
0.000000
-0.003906
-0.025391
0.015625
0.031250
0.041016
0.035156
0.076172
0.089844
0.121090
0.140620
0.169920
0.189450
0.210940
0.230470
0.220700
0.240230
0.220700
0.201170
0.195310
0.166020
0.140620
0.111330
0.080078
0.064453
0.044922
0.019531
0.019531
0.009766
0.009766
0.005859
0.005859
0.009766
0.009766
0.015625
0.031250
0.044922
0.041016
0.035156
0.041016
0.050781
0.054688
0.089844
0.099609
0.089844
0.125000
0.150390
0.166020
0.185550
0.160160
0.134770
0.076172
0.019531
-0.009766
-0.025391
-0.009766
-0.003906
-0.029297
-0.003906
0.005859
0.089844
0.320310
0.625000
0.740230
0.560550
0.210940
0.015625
-0.070312
-0.048828
-0.058594
-0.070312
-0.080078
-0.089844
-0.074219
-0.048828
-0.058594
-0.074219
-0.080078
-0.064453
-0.058594
-0.074219
-0.019531
-0.009766
-0.029297
-0.013672
-0.013672
0.025391
0.070312
0.050781
0.041016
0.169920
0.189450
0.125000
0.179690
0.234380
0.195310
0.156250
0.205080
0.169920
0.089844
0.111330
0.115230
0.019531
-0.025391
-0.013672
-0.064453
-0.080078
-0.025391
-0.099609
-0.119140
-0.039062
-0.035156
-0.099609
-0.115230
-0.083984
-0.103520
-0.039062
-0.003906
-0.074219
-0.093750
-0.064453
-0.003906
0.000000
-0.003906
0.019531
0.000000
0.095703
0.134770
0.050781
0.000000
0.044922
-0.029297
-0.144530
-0.089844
-0.128910
-0.160160
-0.083984
-0.134770
-0.160160
-0.013672
0.234380
0.570310
0.894530
0.914060
0.214840
-0.058594
-0.103520
-0.199220
-0.228520
-0.144530
-0.240230
-0.250000
-0.138670
-0.179690
-0.189450
-0.169920
-0.199220
-0.205080
-0.103520
-0.164060
-0.208980
-0.058594
-0.044922
-0.144530
-0.080078
-0.025391
-0.099609
-0.035156
0.050781
0.000000
0.089844
0.160160
0.140620
0.169920
0.134770
0.111330
0.140620
0.150390
0.041016
0.000000
0.015625
-0.019531
-0.048828
-0.093750
-0.134770
-0.144530
-0.160160
-0.148440
-0.189450
-0.228520
-0.208980
-0.169920
-0.148440
-0.169920
-0.205080
-0.208980
-0.189450
-0.183590
-0.164060
-0.154300
-0.144530
-0.119140
-0.115230
-0.080078
-0.064453
-0.039062
-0.003906
0.000000
-0.054688
-0.089844
-0.138670
-0.183590
-0.208980
-0.218750
-0.218750
-0.218750
-0.214840
-0.214840
-0.144530
0.125000
0.509770
0.779300
0.798830
0.220700
-0.099609
-0.224610
-0.244140
-0.240230
-0.250000
-0.244140
-0.234380
-0.240230
-0.228520
-0.234380
-0.234380
-0.218750
-0.208980
-0.199220
-0.193360
-0.183590
-0.189450
-0.179690
-0.173830
-0.144530
-0.125000
-0.099609
-0.083984
-0.064453
-0.029297
0.005859
0.031250
0.060547
0.064453
0.070312
0.054688
0.041016
0.005859
-0.025391
-0.058594
-0.074219
-0.119140
-0.154300
-0.173830
-0.189450
-0.205080
-0.214840
-0.224610
-0.234380
-0.240230
-0.234380
-0.228520
-0.234380
-0.244140
-0.228520
-0.224610
-0.218750
-0.228520
-0.193360
-0.160160
-0.144530
-0.119140
-0.093750
-0.083984
-0.064453
-0.048828
-0.058594
-0.093750
-0.134770
-0.179690
-0.208980
-0.234380
-0.234380
-0.234380
-0.228520
-0.214840
-0.218750
-0.089844
0.230470
0.589840
0.714840
0.439450
0.031250
-0.183590
-0.234380
-0.240230
-0.234380
-0.259770
-0.263670
-0.259770
-0.263670
-0.250000
-0.240230
-0.234380
-0.218750
-0.214840
-0.179690
-0.189450
-0.169920
-0.160160
-0.144530
-0.144530
-0.125000
-0.093750
-0.064453
-0.035156
-0.013672
0.025391
0.054688
0.076172
0.089844
0.105470
0.095703
0.089844
0.080078
0.054688
0.015625
-0.009766
-0.044922
-0.080078
-0.109380
-0.128910
-0.138670
-0.134770
-0.154300
-0.164060
-0.154300
-0.160160
-0.154300
-0.164060
-0.164060
-0.160160
-0.164060
-0.154300
-0.144530
-0.144530
-0.115230
-0.093750
-0.074219
-0.064453
-0.044922
-0.019531
0.000000
0.015625
0.019531
-0.003906
-0.035156
-0.074219
-0.115230
-0.144530
-0.148440
-0.148440
-0.154300
-0.144530
-0.138670
-0.144530
0.085938
0.425780
0.699220
0.724610
0.279300
0.019531
-0.093750
-0.125000
-0.138670
-0.125000
-0.134770
-0.138670
-0.119140
-0.119140
-0.119140
-0.093750
-0.093750
-0.093750
-0.074219
-0.070312
-0.048828
-0.029297
-0.019531
0.000000
0.005859
0.019531
0.044922
0.064453
0.095703
0.134770
0.156250
0.169920
0.201170
0.210940
0.214840
0.220700
0.210940
0.185550
0.166020
0.130860
0.099609
0.076172
0.050781
0.015625
-0.003906
-0.009766
-0.019531
-0.035156
-0.039062
-0.048828
-0.044922
-0.048828
-0.039062
-0.035156
-0.029297
-0.039062
-0.019531
-0.013672
-0.025391
0.015625
0.025391
0.054688
0.064453
0.080078
0.121090
0.125000
0.150390
0.179690
0.144530
0.099609
0.050781
-0.003906
-0.039062
-0.044922
-0.029297
-0.048828
-0.039062
-0.054688
-0.035156
0.130860
0.419920
0.724610
0.775390
0.429690
0.134770
0.019531
-0.035156
-0.039062
-0.044922
-0.048828
-0.048828
-0.044922
-0.035156
-0.025391
-0.013672
-0.009766
-0.019531
0.005859
0.025391
0.031250
0.044922
0.070312
0.070312
0.076172
0.085938
0.121090
0.150390
0.160160
0.185550
0.234380
0.250000
0.255860
0.279300
0.285160
0.294920
0.279300
0.265620
0.234380
0.214840
0.175780
0.140620
0.111330
0.085938
0.060547
0.050781
0.044922
0.041016
0.031250
0.019531
0.025391
0.031250
0.019531
0.025391
0.031250
0.025391
0.015625
0.019531
0.031250
0.044922
0.060547
0.089844
0.105470
0.099609
0.130860
0.156250
0.160160
0.179690
0.189450
0.150390
0.115230
0.064453
0.015625
-0.009766
-0.013672
0.000000
-0.009766
0.000000
0.009766
0.070312
0.279300
0.589840
0.798830
0.669920
0.279300
0.070312
0.000000
-0.035156
-0.044922
-0.054688
-0.048828
-0.039062
-0.035156
-0.039062
-0.048828
-0.025391
-0.025391
-0.019531
-0.009766
0.005859
0.009766
-0.003906
0.019531
0.031250
0.025391
0.044922
0.050781
0.080078
0.105470
0.140620
0.160160
0.185550
0.201170
0.220700
0.224610
0.230470
0.210940
0.195310
0.175780
0.144530
0.115230
0.099609
0.080078
0.060547
0.044922
0.041016
0.025391
0.019531
0.031250
0.019531
0.025391
0.031250
0.019531
0.019531
0.031250
0.041016
0.041016
0.044922
0.044922
0.044922
0.070312
0.111330
0.115230
0.115230
0.156250
0.169920
0.214840
0.234380
0.201170
0.156250
0.121090
0.054688
0.019531
0.005859
0.009766
-0.003906
-0.009766
0.019531
0.041016
0.160160
0.416020
0.775390
0.869140
0.539060
0.169920
0.025391
-0.013672
-0.025391
-0.013672
-0.054688
-0.058594
-0.025391
-0.029297
-0.048828
-0.025391
0.015625
-0.003906
-0.044922
-0.013672
0.019531
0.025391
0.015625
0.031250
0.035156
0.064453
0.089844
0.105470
0.130860
0.169920
0.201170
0.230470
0.240230
0.265620
0.275390
0.275390
0.255860
0.240230
0.230470
0.201170
0.144530
0.134770
0.121090
0.076172
0.015625
-0.013672
-0.025391
-0.035156
-0.003906
0.050781
0.005859
-0.048828
-0.019531
0.015625
-0.039062
-0.009766
0.031250
0.035156
-0.025391
0.000000
0.035156
0.044922
0.054688
0.064453
0.085938
0.160160
0.144530
0.185550
0.195310
0.140620
0.080078
0.060547
0.076172
0.000000
-0.035156
-0.009766
-0.035156
-0.044922
-0.025391
-0.003906
0.189450
0.515620
0.833980
0.904300
0.583980
0.201170
-0.029297
-0.093750
-0.093750
-0.080078
-0.058594
-0.058594
-0.054688
-0.115230
-0.064453
-0.048828
-0.070312
-0.074219
-0.064453
-0.044922
-0.039062
-0.044922
0.041016
0.050781
-0.009766
0.025391
0.095703
0.054688
0.050781
0.175780
0.230470
0.175780
0.224610
0.285160
0.246090
0.214840
0.255860
0.195310
0.160160
0.140620
0.099609
0.076172
0.060547
0.031250
0.015625
-0.013672
-0.025391
-0.025391
-0.035156
-0.044922
-0.039062
-0.044922
-0.048828
-0.048828
-0.054688
-0.058594
-0.064453
-0.039062
-0.048828
-0.029297
-0.003906
0.019531
0.031250
0.035156
0.070312
0.095703
0.099609
0.121090
0.130860
0.095703
0.064453
0.009766
-0.029297
-0.054688
-0.070312
-0.064453
-0.064453
-0.074219
-0.070312
-0.025391
0.179690
0.505860
0.824220
0.869140
0.439450
0.111330
-0.039062
-0.080078
-0.089844
-0.074219
-0.089844
-0.080078
-0.074219
-0.080078
-0.083984
-0.074219
-0.064453
-0.064453
-0.054688
-0.048828
-0.039062
-0.025391
-0.025391
-0.025391
-0.003906
0.015625
0.041016
0.076172
0.089844
0.134770
0.160160
0.195310
0.210940
0.210940
0.240230
0.230470
0.224610
0.195310
0.160160
0.140620
0.111330
0.076172
0.035156
0.000000
-0.025391
-0.048828
-0.064453
-0.070312
-0.074219
-0.083984
-0.080078
-0.074219
-0.080078
-0.083984
-0.074219
-0.080078
-0.064453
-0.070312
-0.064453
-0.044922
-0.025391
0.000000
0.005859
0.041016
0.064453
0.076172
0.085938
0.089844
0.064453
0.015625
-0.029297
-0.070312
-0.093750
-0.093750
-0.115230
-0.093750
-0.109380
-0.115230
-0.054688
0.156250
0.484380
0.744140
0.769530
0.291020
0.015625
-0.089844
-0.134770
-0.119140
-0.134770
-0.144530
-0.144530
-0.154300
-0.125000
-0.119140
-0.125000
-0.103520
-0.103520
-0.089844
-0.074219
-0.070312
-0.058594
-0.054688
-0.035156
-0.025391
-0.009766
0.019531
0.041016
0.064453
0.095703
0.130860
0.156250
0.175780
0.189450
0.201170
0.185550
0.169920
0.134770
0.121090
0.089844
0.054688
0.025391
0.000000
-0.039062
-0.044922
-0.064453
-0.070312
-0.080078
-0.080078
-0.083984
-0.089844
-0.083984
-0.089844
-0.089844
-0.089844
-0.089844
-0.080078
-0.083984
-0.089844
-0.064453
-0.048828
-0.029297
-0.009766
0.005859
0.041016
0.044922
0.054688
0.070312
0.050781
0.005859
-0.029297
-0.083984
-0.115230
-0.119140
-0.119140
-0.144530
-0.144530
-0.138670
-0.144530
-0.003906
0.255860
0.599610
0.675780
0.410160
0.044922
-0.103520
-0.160160
-0.173830
-0.169920
-0.179690
-0.173830
-0.189450
-0.183590
-0.169920
-0.164060
-0.164060
-0.160160
-0.164060
-0.148440
-0.134770
-0.128910
-0.138670
-0.099609
-0.089844
-0.083984
-0.070312
-0.054688
-0.025391
0.005859
0.035156
0.060547
0.076172
0.089844
0.095703
0.105470
0.089844
0.070312
0.054688
0.015625
-0.019531
-0.048828
-0.080078
-0.103520
-0.125000
-0.134770
-0.148440
-0.164060
-0.169920
-0.179690
-0.169920
-0.189450
-0.179690
-0.173830
-0.189450
-0.179690
-0.183590
-0.169920
-0.179690
-0.169920
-0.169920
-0.138670
-0.115230
-0.119140
-0.093750
-0.058594
-0.044922
-0.025391
-0.019531
-0.089844
-0.119140
-0.154300
-0.208980
-0.240230
-0.234380
-0.244140
-0.234380
-0.244140
-0.253910
-0.199220
-0.009766
0.324220
0.544920
0.449220
0.050781
-0.160160
-0.269530
-0.304690
-0.308590
-0.298830
-0.324220
-0.308590
-0.304690
-0.304690
-0.304690
-0.304690
-0.294920
-0.285160
-0.289060
-0.285160
-0.273440
-0.269530
-0.259770
-0.253910
-0.240230
-0.234380
-0.214840
-0.189450
-0.169920
-0.144530
-0.119140
-0.099609
-0.070312
-0.064453
-0.070312
-0.054688
-0.074219
-0.099609
-0.138670
-0.154300
-0.193360
-0.224610
-0.250000
-0.279300
-0.294920
-0.324220
-0.333980
-0.343750
-0.333980
-0.349610
-0.375000
-0.343750
-0.353520
-0.349610
-0.353520
-0.375000
-0.359380
-0.369140
-0.378910
-0.359380
-0.330080
-0.304690
-0.294920
-0.289060
-0.240230
-0.250000
-0.224610
-0.193360
-0.208980
-0.250000
-0.289060
-0.339840
-0.378910
-0.404300
-0.398440
-0.419920
-0.398440
-0.404300
-0.375000
-0.273440
-0.029297
0.285160
0.380860
0.140620
-0.193360
-0.343750
-0.404300
-0.423830
-0.419920
-0.429690
-0.439450
-0.433590
-0.439450
-0.429690
-0.423830
-0.414060
-0.404300
-0.398440
-0.388670
-0.378910
-0.363280
-0.369140
-0.375000
-0.333980
-0.308590
-0.285160
-0.263670
-0.244140
-0.214840
-0.173830
-0.160160
-0.144530
-0.128910
-0.125000
-0.115230
-0.125000
-0.144530
-0.160160
-0.193360
-0.218750
-0.244140
-0.263670
-0.289060
-0.308590
-0.324220
-0.333980
-0.339840
-0.349610
-0.343750
-0.349610
-0.343750
-0.333980
-0.324220
-0.318360
-0.308590
-0.304690
-0.304690
-0.285160
-0.285160
-0.259770
-0.240230
-0.214840
-0.205080
-0.173830
-0.144530
-0.138670
-0.109380
-0.103520
-0.148440
-0.179690
-0.218750
-0.259770
-0.304690
-0.304690
-0.285160
-0.294920
-0.298830
-0.269530
-0.208980
-0.025391
0.269530
0.554690
0.564450
0.111330
-0.148440
-0.228520
-0.259770
-0.269530
-0.285160
-0.279300
-0.259770
-0.263670
-0.279300
-0.259770
-0.224610
-0.228520
-0.228520
-0.218750
-0.214840
-0.183590
-0.144530
-0.144530
-0.148440
-0.128910
-0.119140
-0.093750
-0.064453
-0.025391
-0.009766
0.000000
0.050781
0.080078
0.076172
0.095703
0.111330
0.095703
0.064453
0.025391
0.000000
-0.035156
-0.025391
-0.054688
-0.103520
-0.134770
-0.119140
-0.138670
-0.160160
-0.148440
-0.138670
-0.148440
-0.144530
-0.154300
-0.115230
-0.099609
-0.093750
-0.109380
-0.103520
-0.074219
-0.080078
-0.070312
-0.044922
-0.019531
0.000000
-0.003906
0.044922
0.064453
0.089844
0.095703
0.060547
0.009766
-0.035156
-0.058594
-0.080078
-0.093750
-0.093750
-0.093750
-0.074219
-0.070312
-0.039062
0.205080
0.599610
0.865230
0.869140
0.330080
0.019531
-0.083984
-0.109380
-0.093750
-0.125000
-0.134770
-0.089844
-0.099609
-0.115230
-0.089844
-0.080078
-0.074219
-0.093750
-0.070312
-0.019531
-0.025391
-0.019531
-0.019531
0.015625
0.025391
0.019531
0.060547
0.095703
0.111330
0.160160
0.214840
0.255860
0.279300
0.265620
0.259770
0.259770
0.255860
0.275390
0.230470
0.166020
0.160160
0.111330
0.089844
0.054688
0.044922
0.005859
-0.003906
0.019531
-0.025391
-0.025391
0.000000
0.031250
0.005859
-0.035156
-0.009766
0.044922
0.015625
-0.019531
-0.029297
0.041016
0.080078
0.041016
0.035156
0.125000
0.140620
0.111330
0.156250
0.169920
0.140620
0.121090
0.070312
0.019531
0.000000
-0.013672
-0.019531
-0.019531
-0.013672
-0.025391
-0.009766
0.156250
0.490230
0.859380
0.980470
0.689450
0.246090
0.009766
-0.054688
-0.070312
-0.074219
-0.083984
-0.074219
-0.083984
-0.083984
-0.080078
-0.074219
-0.064453
-0.054688
-0.029297
-0.025391
-0.013672
-0.009766
0.000000
0.015625
0.044922
0.064453
0.064453
0.105470
0.134770
0.169920
0.214840
0.250000
0.269530
0.285160
0.300780
0.310550
0.294920
0.275390
0.240230
0.210940
0.179690
0.130860
0.085938
0.054688
0.009766
-0.070312
-0.128910
-0.164060
-0.189450
-0.208980
-0.224610
-0.228520
-0.214840
-0.214840
-0.208980
-0.189450
-0.189450
-0.189450
-0.179690
-0.160160
-0.144530
-0.093750
-0.070312
-0.048828
-0.009766
0.005859
0.041016
0.060547
0.044922
0.025391
-0.009766
-0.058594
-0.099609
-0.103520
-0.109380
-0.103520
-0.099609
-0.093750
-0.093750
-0.003906
0.240230
0.580080
0.750000
0.583980
0.130860
-0.099609
-0.169920
-0.183590
-0.183590
-0.193360
-0.183590
-0.179690
-0.173830
-0.179690
-0.164060
-0.160160
-0.128910
-0.119140
-0.115230
-0.083984
-0.089844
-0.070312
-0.054688
-0.025391
-0.019531
0.005859
0.035156
0.050781
0.080078
0.095703
0.111330
0.140620
0.160160
0.175780
0.189450
0.179690
0.169920
0.140620
0.111330
0.070312
0.054688
0.025391
0.000000
-0.019531
-0.025391
-0.058594
-0.064453
-0.054688
-0.064453
-0.074219
-0.070312
-0.058594
-0.054688
-0.048828
-0.035156
-0.039062
-0.039062
-0.029297
-0.025391
-0.013672
0.015625
0.041016
0.060547
0.095703
0.105470
0.089844
0.144530
0.125000
0.089844
0.064453
0.031250
-0.013672
-0.044922
-0.054688
-0.048828
-0.039062
-0.035156
-0.044922
0.025391
0.265620
0.599610
0.804690
0.685550
0.259770
0.035156
-0.039062
-0.070312
-0.048828
-0.058594
-0.074219
-0.054688
-0.044922
-0.048828
-0.044922
-0.044922
-0.013672
-0.003906
0.000000
0.000000
0.015625
0.019531
0.041016
0.054688
0.044922
0.070312
0.105470
0.111330
0.156250
0.195310
0.210940
0.230470
0.246090
0.259770
0.275390
0.259770
0.265620
0.230470
0.201170
0.179690
0.144530
0.111330
0.089844
0.064453
0.044922
0.000000
0.005859
0.015625
-0.003906
0.005859
0.000000
0.025391
0.019531
0.015625
0.009766
0.031250
0.009766
0.019531
0.015625
0.050781
0.070312
0.089844
0.105470
0.115230
0.144530
0.156250
0.175780
0.169920
0.156250
0.105470
0.060547
0.009766
0.000000
-0.019531
-0.013672
-0.025391
-0.025391
-0.003906
0.005859
0.166020
0.455080
0.744140
0.794920
0.429690
0.144530
0.000000
-0.025391
-0.048828
-0.029297
-0.044922
-0.048828
-0.044922
-0.029297
-0.025391
-0.039062
-0.048828
-0.029297
-0.039062
-0.029297
-0.019531
-0.009766
0.009766
0.005859
0.025391
0.054688
0.076172
0.099609
0.121090
0.150390
0.179690
0.189450
0.210940
0.234380
0.246090
0.230470
0.214840
0.220700
0.179690
0.160160
0.134770
0.095703
0.085938
0.044922
0.015625
0.000000
-0.003906
-0.009766
-0.025391
-0.025391
-0.025391
-0.025391
-0.025391
-0.025391
-0.025391
-0.019531
-0.029297
0.000000
-0.003906
0.015625
0.000000
0.044922
0.060547
0.064453
0.085938
0.099609
0.115230
0.130860
0.144530
0.099609
0.060547
0.015625
-0.019531
-0.044922
-0.058594
-0.054688
-0.054688
-0.070312
-0.054688
-0.009766
0.214840
0.525390
0.750000
0.634770
0.250000
0.044922
-0.054688
-0.089844
-0.093750
-0.093750
-0.109380
-0.103520
-0.109380
-0.103520
-0.115230
-0.083984
-0.074219
-0.064453
-0.054688
-0.048828
-0.048828
-0.044922
-0.048828
-0.013672
-0.003906
0.005859
0.031250
0.064453
0.080078
0.105470
0.140620
0.160160
0.175780
0.166020
0.179690
0.175780
0.160160
0.144530
0.125000
0.089844
0.070312
0.031250
0.009766
-0.019531
-0.044922
-0.058594
-0.070312
-0.080078
-0.080078
-0.039062
0.005859
0.044922
0.060547
0.064453
0.080078
0.085938
0.089844
0.089844
0.089844
0.089844
0.099609
0.121090
0.140620
0.140620
0.160160
0.185550
0.195310
0.220700
0.195310
0.169920
0.121090
0.060547
0.019531
0.000000
-0.013672
-0.019531
-0.029297
-0.009766
-0.025391
0.060547
0.291020
0.595700
0.750000
0.599610
0.220700
0.019531
-0.039062
-0.080078
-0.083984
-0.074219
-0.089844
-0.074219
-0.080078
-0.064453
-0.080078
-0.074219
-0.070312
-0.070312
-0.058594
-0.054688
-0.048828
-0.048828
-0.039062
-0.029297
-0.013672
0.000000
0.019531
0.041016
0.064453
0.095703
0.115230
0.130860
0.144530
0.160160
0.156250
0.130860
0.140620
0.115230
0.085938
0.064453
0.031250
0.005859
-0.048828
-0.054688
-0.070312
-0.093750
-0.103520
-0.115230
-0.103520
-0.115230
-0.119140
-0.119140
-0.103520
-0.115230
-0.109380
-0.109380
-0.115230
-0.115230
-0.115230
-0.099609
-0.083984
-0.064453
-0.048828
-0.039062
0.000000
0.015625
0.035156
0.064453
0.041016
0.005859
-0.029297
-0.083984
-0.119140
-0.144530
-0.134770
-0.138670
-0.138670
-0.138670
-0.128910
-0.025391
0.220700
0.544920
0.664060
0.460940
0.085938
-0.103520
-0.164060
-0.164060
-0.173830
-0.189450
-0.179690
-0.154300
-0.164060
-0.164060
-0.160160
-0.164060
-0.169920
-0.144530
-0.125000
-0.119140
-0.115230
-0.093750
-0.074219
-0.074219
-0.080078
-0.048828
-0.029297
-0.003906
0.025391
0.054688
0.076172
0.089844
0.121090
0.140620
0.144530
0.121090
0.111330
0.095703
0.070312
0.041016
0.005859
-0.029297
-0.048828
-0.048828
-0.083984
-0.119140
-0.144530
-0.119140
-0.115230
-0.138670
-0.119140
-0.109380
-0.119140
-0.109380
-0.093750
-0.103520
-0.115230
-0.109380
-0.119140
-0.089844
-0.080078
-0.054688
-0.019531
-0.025391
0.005859
0.015625
0.005859
0.044922
0.031250
-0.035156
-0.070312
-0.089844
-0.134770
-0.160160
-0.164060
-0.144530
-0.134770
-0.164060
-0.109380
0.019531
0.294920
0.685550
0.789060
0.494140
0.115230
-0.080078
-0.160160
-0.183590
-0.179690
-0.189450
-0.148440
-0.164060
-0.189450
-0.179690
-0.115230
-0.138670
-0.205080
-0.173830
-0.115230
-0.093750
-0.109380
-0.103520
-0.083984
-0.074219
-0.070312
-0.048828
-0.039062
0.035156
0.099609
0.134770
0.089844
0.125000
0.150390
0.134770
0.130860
0.160160
0.179690
0.160160
0.121090
0.060547
0.041016
0.005859
-0.048828
-0.054688
-0.089844
-0.064453
-0.070312
-0.089844
-0.103520
-0.093750
-0.119140
-0.074219
-0.048828
-0.099609
-0.115230
-0.089844
-0.109380
-0.074219
-0.054688
-0.025391
0.019531
-0.013672
-0.029297
0.035156
0.060547
0.044922
0.105470
0.144530
0.095703
0.025391
-0.009766
-0.054688
-0.083984
-0.074219
-0.093750
-0.103520
-0.093750
-0.093750
-0.064453
0.160160
0.500000
0.849610
0.900390
0.480470
0.095703
-0.064453
-0.115230
-0.119140
-0.119140
-0.134770
-0.128910
-0.125000
-0.119140
-0.115230
-0.119140
-0.119140
-0.115230
-0.099609
-0.080078
-0.070312
-0.054688
-0.048828
-0.025391
-0.003906
0.015625
0.035156
0.070312
0.095703
0.125000
0.166020
0.195310
0.220700
0.234380
0.240230
0.240230
0.224610
0.210940
0.179690
0.144530
0.125000
0.099609
0.064453
0.031250
0.009766
-0.009766
-0.025391
-0.013672
-0.035156
-0.029297
-0.035156
-0.029297
-0.044922
-0.029297
-0.025391
-0.029297
-0.025391
-0.025391
-0.025391
0.000000
0.015625
0.044922
0.060547
0.070312
0.099609
0.115230
0.134770
0.160160
0.140620
0.111330
0.070312
0.015625
-0.009766
-0.025391
-0.035156
-0.025391
-0.029297
-0.025391
-0.025391
0.080078
0.359380
0.730470
0.869140
0.654300
0.234380
0.035156
-0.044922
-0.058594
-0.064453
-0.054688
-0.048828
-0.054688
-0.039062
-0.048828
-0.044922
-0.025391
-0.029297
0.000000
0.009766
0.019531
0.031250
0.019531
0.044922
0.044922
0.076172
0.095703
0.121090
0.160160
0.185550
0.205080
0.234380
0.255860
0.265620
0.279300
0.294920
0.285160
0.259770
0.240230
0.210940
0.169920
0.144530
0.115230
0.080078
0.064453
0.044922
0.019531
0.015625
0.015625
0.009766
0.015625
0.009766
0.005859
0.015625
0.019531
0.019531
0.025391
0.019531
0.035156
0.019531
0.060547
0.070312
0.089844
0.099609
0.115230
0.130860
0.134770
0.156250
0.125000
0.099609
0.054688
0.009766
-0.029297
-0.048828
-0.064453
-0.058594
-0.064453
-0.064453
-0.048828
0.041016
0.279300
0.583980
0.720700
0.519530
0.125000
-0.064453
-0.160160
-0.169920
-0.189450
-0.193360
-0.189450
-0.179690
-0.189450
-0.183590
-0.179690
-0.189450
-0.189450
-0.193360
-0.169920
-0.160160
-0.144530
-0.128910
-0.138670
-0.119140
-0.093750
-0.070312
-0.039062
-0.029297
0.015625
0.041016
0.076172
0.105470
0.111330
0.130860
0.140620
0.134770
0.140620
0.111330
0.089844
0.050781
0.031250
0.000000
-0.019531
-0.044922
-0.058594
-0.074219
-0.083984
-0.093750
-0.109380
-0.109380
-0.093750
-0.099609
-0.080078
-0.080078
-0.074219
-0.099609
-0.089844
-0.074219
-0.080078
-0.048828
-0.029297
-0.003906
0.005859
0.041016
0.060547
0.070312
0.089844
0.085938
0.044922
0.009766
-0.025391
-0.083984
-0.093750
-0.099609
-0.103520
-0.093750
-0.109380
-0.080078
-0.035156
0.169920
0.490230
0.714840
0.589840
0.214840
0.015625
-0.083984
-0.115230
-0.115230
-0.125000
-0.119140
-0.109380
-0.103520
-0.099609
-0.103520
-0.093750
-0.093750
-0.080078
-0.074219
-0.064453
-0.074219
-0.054688
-0.039062
-0.035156
-0.019531
0.005859
0.031250
0.064453
0.076172
0.095703
0.134770
0.150390
0.169920
0.195310
0.201170
0.185550
0.166020
0.150390
0.179690
0.205080
0.185550
0.166020
0.160160
0.130860
0.130860
0.111330
0.080078
0.076172
0.085938
0.080078
0.076172
0.070312
0.070312
0.060547
0.070312
0.070312
0.064453
0.064453
0.070312
0.070312
0.089844
0.111330
0.125000
0.144530
0.166020
0.160160
0.185550
0.195310
0.140620
0.121090
0.060547
-0.003906
-0.025391
-0.029297
-0.029297
-0.048828
-0.044922
-0.039062
-0.044922
0.175780
0.480470
0.720700
0.734380
0.285160
0.064453
-0.044922
-0.074219
-0.093750
-0.109380
-0.093750
-0.099609
-0.093750
-0.089844
-0.083984
-0.083984
-0.074219
-0.070312
-0.074219
-0.064453
-0.054688
-0.048828
-0.039062
-0.035156
-0.013672
0.009766
0.019531
0.041016
0.064453
0.085938
0.115230
0.130860
0.150390
0.169920
0.166020
0.175780
0.144530
0.130860
0.111330
0.076172
0.044922
0.019531
-0.009766
-0.035156
-0.054688
-0.074219
-0.083984
-0.093750
-0.093750
-0.089844
-0.083984
-0.089844
-0.089844
-0.089844
-0.080078
-0.080078
-0.074219
-0.074219
-0.080078
-0.074219
-0.058594
-0.025391
-0.009766
0.005859
0.041016
0.054688
0.050781
0.089844
0.070312
0.035156
-0.003906
-0.048828
-0.083984
-0.093750
-0.115230
-0.119140
-0.119140
-0.115230
-0.099609
-0.003906
0.246090
0.595700
0.705080
0.455080
0.111330
-0.044922
-0.115230
-0.154300
-0.154300
-0.169920
-0.189450
-0.173830
-0.148440
-0.134770
-0.144530
-0.144530
-0.125000
-0.119140
-0.128910
-0.099609
-0.074219
-0.080078
-0.080078
-0.044922
-0.025391
-0.029297
-0.025391
0.015625
0.044922
0.064453
0.089844
0.134770
0.169920
0.160160
0.156250
0.125000
0.105470
0.105470
0.080078
0.025391
0.009766
0.000000
-0.019531
-0.064453
-0.080078
-0.089844
-0.074219
-0.109380
-0.119140
-0.119140
-0.125000
-0.115230
-0.070312
-0.058594
-0.083984
-0.064453
-0.074219
-0.070312
-0.083984
-0.054688
-0.039062
-0.025391
-0.035156
-0.003906
0.044922
0.070312
0.089844
0.085938
0.076172
0.005859
-0.058594
-0.089844
-0.119140
-0.125000
-0.109380
-0.089844
-0.093750
-0.103520
-0.044922
0.210940
0.539060
0.830080
0.833980
0.320310
0.015625
-0.103520
-0.125000
-0.144530
-0.154300
-0.160160
-0.144530
-0.160160
-0.125000
-0.089844
-0.119140
-0.144530
-0.128910
-0.109380
-0.099609
-0.074219
-0.099609
-0.119140
-0.064453
-0.029297
-0.025391
0.000000
0.070312
0.064453
0.080078
0.125000
0.160160
0.166020
0.175780
0.220700
0.224610
0.169920
0.166020
0.185550
0.085938
0.044922
0.070312
0.031250
-0.025391
-0.039062
-0.029297
-0.025391
-0.099609
-0.058594
-0.039062
-0.115230
-0.070312
-0.044922
-0.074219
-0.044922
-0.025391
-0.080078
-0.093750
-0.044922
0.009766
0.015625
-0.039062
0.041016
0.070312
0.080078
0.054688
0.085938
0.150390
0.111330
0.031250
0.005859
-0.025391
-0.080078
-0.093750
-0.089844
-0.083984
-0.080078
-0.080078
-0.048828
0.125000
0.455080
0.814450
0.900390
0.564450
0.150390
-0.044922
-0.115230
-0.119140
-0.134770
-0.154300
-0.144530
-0.138670
-0.148440
-0.134770
-0.125000
-0.115230
-0.109380
-0.093750
-0.093750
-0.089844
-0.074219
-0.070312
-0.044922
-0.019531
0.000000
0.019531
0.054688
0.089844
0.105470
0.140620
0.166020
0.185550
0.210940
0.214840
0.224610
0.205080
0.195310
0.160160
0.134770
0.111330
0.076172
0.041016
0.015625
-0.009766
-0.025391
-0.044922
-0.064453
-0.074219
-0.064453
-0.074219
-0.074219
-0.070312
-0.070312
-0.074219
-0.070312
-0.074219
-0.080078
-0.054688
-0.029297
-0.013672
-0.003906
0.019531
0.025391
0.054688
0.076172
0.105470
0.130860
0.115230
0.085938
0.035156
-0.009766
-0.048828
-0.074219
-0.080078
-0.089844
-0.093750
-0.074219
-0.074219
0.015625
0.304690
0.664060
0.789060
0.550780
0.140620
-0.039062
-0.093750
-0.115230
-0.119140
-0.103520
-0.115230
-0.125000
-0.128910
-0.109380
-0.099609
-0.089844
-0.083984
-0.074219
-0.070312
-0.074219
-0.064453
-0.029297
-0.013672
-0.009766
0.000000
0.031250
0.050781
0.070312
0.111330
0.130860
0.166020
0.179690
0.201170
0.205080
0.210940
0.185550
0.185550
0.140620
0.044922
-0.013672
-0.054688
-0.099609
-0.148440
-0.164060
-0.183590
-0.173830
-0.193360
-0.189450
-0.205080
-0.199220
-0.179690
-0.199220
-0.208980
-0.189450
-0.189450
-0.189450
-0.183590
-0.169920
-0.144530
-0.128910
-0.125000
-0.099609
-0.064453
-0.044922
-0.035156
-0.013672
0.000000
-0.009766
-0.044922
-0.058594
-0.128910
-0.169920
-0.164060
-0.179690
-0.169920
-0.164060
-0.179690
-0.183590
-0.029297
0.250000
0.560550
0.654300
0.365230
0.044922
-0.115230
-0.169920
-0.189450
-0.183590
-0.189450
-0.179690
-0.189450
-0.183590
-0.169920
-0.179690
-0.169920
-0.160160
-0.144530
-0.148440
-0.125000
-0.134770
-0.119140
-0.103520
-0.074219
-0.064453
-0.044922
-0.029297
-0.013672
0.015625
0.050781
0.080078
0.095703
0.121090
0.130860
0.121090
0.111330
0.089844
0.064453
0.025391
-0.013672
-0.044922
-0.080078
-0.093750
-0.125000
-0.148440
-0.164060
-0.164060
-0.160160
-0.173830
-0.189450
-0.183590
-0.169920
-0.164060
-0.164060
-0.154300
-0.144530
-0.138670
-0.138670
-0.128910
-0.103520
-0.083984
-0.070312
-0.048828
-0.025391
0.000000
0.019531
0.041016
0.009766
-0.025391
-0.070312
-0.125000
-0.154300
-0.169920
-0.173830
-0.189450
-0.164060
-0.169920
-0.160160
-0.039062
0.220700
0.535160
0.640620
0.375000
0.050781
-0.103520
-0.164060
-0.179690
-0.193360
-0.199220
-0.183590
-0.189450
-0.173830
-0.160160
-0.148440
-0.119140
-0.109380
-0.093750
-0.080078
-0.074219
-0.064453
-0.048828
-0.039062
-0.013672
-0.003906
0.044922
0.115230
0.169920
0.220700
0.265620
0.291020
0.310550
0.320310
0.335940
0.320310
0.324220
0.294920
0.269530
0.240230
0.210940
0.179690
0.166020
0.130860
0.111330
0.085938
0.054688
0.044922
0.031250
0.031250
0.025391
0.019531
0.009766
0.019531
0.025391
0.019531
0.025391
0.019531
0.015625
0.025391
0.035156
0.044922
0.064453
0.060547
0.085938
0.105470
0.125000
0.150390
0.125000
0.095703
0.044922
-0.013672
-0.048828
-0.074219
-0.080078
-0.099609
-0.093750
-0.099609
-0.093750
-0.019531
0.224610
0.539060
0.695310
0.500000
0.134770
-0.039062
-0.119140
-0.134770
-0.128910
-0.144530
-0.160160
-0.148440
-0.144530
-0.138670
-0.134770
-0.128910
-0.138670
-0.103520
-0.103520
-0.099609
-0.083984
-0.089844
-0.074219
-0.064453
-0.048828
-0.029297
-0.013672
0.005859
0.031250
0.050781
0.080078
0.095703
0.111330
0.121090
0.115230
0.121090
0.095703
0.076172
0.044922
0.019531
-0.003906
-0.035156
-0.064453
-0.083984
-0.099609
-0.119140
-0.134770
-0.148440
-0.164060
-0.169920
-0.164060
-0.164060
-0.164060
-0.154300
-0.148440
-0.148440
-0.164060
-0.193360
-0.214840
-0.208980
-0.189450
-0.169920
-0.160160
-0.138670
-0.119140
-0.103520
-0.058594
-0.074219
-0.115230
-0.148440
-0.193360
-0.234380
-0.240230
-0.253910
-0.263670
-0.263670
-0.259770
-0.259770
-0.214840
0.009766
0.324220
0.564450
0.474610
0.095703
-0.128910
-0.228520
-0.269530
-0.285160
-0.304690
-0.289060
-0.285160
-0.273440
-0.250000
-0.244140
-0.263670
-0.259770
-0.259770
-0.234380
-0.214840
-0.199220
-0.169920
-0.160160
-0.173830
-0.179690
-0.148440
-0.083984
-0.074219
-0.058594
-0.035156
0.009766
0.019531
0.044922
0.080078
0.064453
0.035156
0.044922
0.031250
0.000000
0.009766
-0.025391
-0.080078
-0.103520
-0.115230
-0.138670
-0.164060
-0.189450
-0.169920
-0.173830
-0.179690
-0.199220
-0.218750
-0.208980
-0.169920
-0.160160
-0.189450
-0.228520
-0.224610
-0.240230
-0.244140
-0.228520
-0.234380
-0.228520
-0.208980
-0.144530
-0.148440
-0.134770
-0.115230
-0.119140
-0.138670
-0.169920
-0.214840
-0.304690
-0.333980
-0.294920
-0.263670
-0.244140
-0.298830
-0.304690
-0.125000
0.156250
0.539060
0.699220
0.410160
-0.013672
-0.228520
-0.279300
-0.304690
-0.289060
-0.294920
-0.279300
-0.269530
-0.289060
-0.269530
-0.289060
-0.253910
-0.234380
-0.259770
-0.244140
-0.205080
-0.240230
-0.244140
-0.189450
-0.189450
-0.154300
-0.093750
-0.064453
-0.054688
-0.044922
-0.013672
0.009766
0.005859
0.070312
0.085938
0.115230
0.099609
0.070312
0.044922
0.041016
-0.029297
-0.044922
-0.083984
-0.125000
-0.119140
-0.138670
-0.154300
-0.169920
-0.173830
-0.148440
-0.173830
-0.234380
-0.189450
-0.148440
-0.125000
-0.173830
-0.199220
-0.193360
-0.134770
-0.099609
-0.138670
-0.154300
-0.115230
-0.074219
-0.070312
-0.074219
-0.054688
0.005859
0.019531
-0.019531
-0.054688
-0.109380
-0.148440
-0.169920
-0.179690
-0.169920
-0.183590
-0.179690
-0.179690
-0.103520
0.169920
0.550780
0.804690
0.695310
0.220700
-0.070312
-0.189450
-0.228520
-0.240230
-0.234380
-0.234380
-0.240230
-0.234380
-0.224610
-0.214840
-0.205080
-0.208980
-0.189450
-0.173830
-0.164060
-0.160160
-0.138670
-0.125000
-0.103520
-0.048828
0.015625
0.064453
0.105470
0.134770
0.169920
0.210940
0.234380
0.255860
0.269530
0.275390
0.255860
0.246090
0.214840
0.179690
0.144530
0.111330
0.076172
0.041016
0.009766
-0.019531
-0.025391
-0.044922
-0.058594
-0.064453
-0.074219
-0.083984
-0.080078
-0.074219
-0.070312
-0.080078
-0.089844
-0.070312
-0.064453
-0.054688
-0.044922
-0.025391
0.000000
0.019531
0.041016
0.035156
0.054688
0.085938
0.089844
0.041016
0.000000
-0.048828
-0.093750
-0.119140
-0.134770
-0.148440
-0.134770
-0.144530
-0.154300
-0.099609
0.130860
0.464840
0.730470
0.734380
0.220700
-0.025391
-0.148440
-0.189450
-0.189450
-0.183590
-0.199220
-0.189450
-0.193360
-0.205080
-0.193360
-0.169920
-0.179690
-0.160160
-0.164060
-0.144530
-0.134770
-0.144530
-0.125000
-0.109380
-0.115230
-0.089844
-0.054688
-0.025391
0.005859
0.035156
0.054688
0.080078
0.111330
0.115230
0.125000
0.115230
0.115230
0.076172
0.054688
0.019531
-0.003906
-0.035156
-0.064453
-0.099609
-0.119140
-0.144530
-0.138670
-0.144530
-0.148440
-0.148440
-0.144530
-0.173830
-0.169920
-0.148440
-0.144530
-0.160160
-0.148440
-0.138670
-0.134770
-0.109380
-0.099609
-0.074219
-0.064453
-0.044922
-0.025391
0.000000
0.015625
0.025391
-0.029297
-0.048828
-0.099609
-0.144530
-0.164060
-0.164060
-0.179690
-0.169920
-0.154300
-0.164060
-0.093750
0.140620
0.494140
0.669920
0.515620
0.121090
-0.083984
-0.160160
-0.193360
-0.179690
-0.199220
-0.214840
-0.205080
-0.193360
-0.189450
-0.169920
-0.164060
-0.173830
-0.138670
-0.134770
-0.128910
-0.138670
-0.125000
-0.103520
-0.080078
-0.074219
-0.058594
-0.044922
-0.019531
0.025391
0.054688
0.070312
0.089844
0.115230
0.115230
0.125000
0.140620
0.115230
0.089844
0.085938
0.054688
0.015625
-0.003906
-0.029297
-0.044922
-0.083984
-0.089844
-0.083984
-0.093750
-0.103520
-0.093750
-0.099609
-0.093750
-0.103520
-0.080078
-0.080078
-0.074219
-0.080078
-0.074219
-0.064453
-0.039062
-0.009766
-0.009766
0.009766
0.050781
0.076172
0.085938
0.115230
0.095703
0.044922
0.000000
-0.044922
-0.089844
-0.103520
-0.089844
-0.089844
-0.093750
-0.089844
-0.074219
0.019531
0.265620
0.583980
0.730470
0.550780
0.179690
0.009766
-0.048828
-0.089844
-0.080078
-0.074219
-0.083984
-0.083984
-0.064453
-0.064453
-0.070312
-0.048828
-0.048828
-0.025391
-0.019531
-0.025391
0.000000
0.015625
0.025391
0.035156
0.060547
0.070312
0.095703
0.125000
0.160160
0.185550
0.210940
0.240230
0.250000
0.259770
0.265620
0.259770
0.224610
0.210940
0.214840
0.179690
0.134770
0.111330
0.089844
0.076172
0.044922
0.031250
0.041016
0.019531
0.015625
0.019531
0.025391
0.019531
0.031250
0.019531
0.025391
0.031250
0.035156
0.041016
0.031250
0.060547
0.085938
0.089844
0.099609
0.121090
0.160160
0.185550
0.205080
0.185550
0.144530
0.105470
0.054688
0.015625
0.000000
-0.003906
0.005859
0.009766
-0.013672
0.000000
0.085938
0.335940
0.650390
0.779300
0.580080
0.220700
0.054688
-0.009766
-0.039062
-0.048828
-0.058594
-0.070312
-0.048828
-0.044922
-0.054688
-0.048828
-0.035156
-0.025391
-0.013672
-0.003906
-0.019531
0.015625
0.015625
0.019531
0.019531
0.031250
0.076172
0.099609
0.095703
0.130860
0.175780
0.195310
0.201170
0.214840
0.230470
0.234380
0.214840
0.205080
0.179690
0.160160
0.130860
0.099609
0.064453
0.041016
0.019531
-0.003906
-0.035156
-0.044922
-0.044922
-0.048828
-0.048828
-0.054688
-0.044922
-0.048828
-0.039062
-0.029297
-0.048828
-0.035156
-0.039062
-0.044922
-0.009766
0.019531
0.019531
0.025391
0.044922
0.064453
0.085938
0.111330
0.085938
0.041016
0.009766
-0.035156
-0.093750
-0.103520
-0.109380
-0.103520
-0.119140
-0.099609
-0.093750
-0.025391
0.220700
0.529300
0.685550
0.500000
0.134770
-0.039062
-0.115230
-0.144530
-0.144530
-0.144530
-0.148440
-0.160160
-0.148440
-0.148440
-0.148440
-0.144530
-0.134770
-0.119140
-0.103520
-0.093750
-0.083984
-0.080078
-0.064453
-0.048828
-0.035156
-0.025391
-0.013672
0.009766
0.044922
0.076172
0.089844
0.105470
0.115230
0.105470
0.085938
0.060547
0.025391
-0.013672
-0.039062
-0.054688
-0.103520
-0.160160
-0.193360
-0.205080
-0.199220
-0.240230
-0.273440
-0.279300
-0.253910
-0.250000
-0.263670
-0.279300
-0.273440
-0.259770
-0.250000
-0.269530
-0.285160
-0.259770
-0.250000
-0.244140
-0.199220
-0.164060
-0.169920
-0.144530
-0.119140
-0.089844
-0.058594
-0.064453
-0.074219
-0.119140
-0.173830
-0.193360
-0.224610
-0.250000
-0.240230
-0.224610
-0.234380
-0.199220
-0.115230
0.125000
0.439450
0.669920
0.529300
0.095703
-0.148440
-0.218750
-0.218750
-0.234380
-0.244140
-0.253910
-0.263670
-0.244140
-0.228520
-0.250000
-0.250000
-0.224610
-0.183590
-0.193360
-0.183590
-0.179690
-0.218750
-0.199220
-0.125000
-0.119140
-0.160160
-0.134770
-0.080078
-0.064453
-0.029297
-0.003906
0.005859
0.025391
0.041016
0.050781
0.064453
0.035156
-0.019531
-0.044922
-0.064453
-0.054688
-0.134770
-0.169920
-0.164060
-0.169920
-0.169920
-0.208980
-0.240230
-0.234380
-0.259770
-0.253910
-0.173830
-0.125000
-0.103520
-0.125000
-0.128910
-0.128910
-0.115230
-0.080078
-0.093750
-0.064453
-0.025391
-0.048828
0.025391
0.044922
-0.035156
0.005859
0.076172
-0.003906
-0.058594
-0.054688
-0.154300
-0.218750
-0.193360
-0.183590
-0.164060
-0.199220
-0.224610
-0.134770
0.105470
0.460940
0.699220
0.708980
0.195310
-0.119140
-0.234380
-0.298830
-0.289060
-0.298830
-0.285160
-0.330080
-0.359380
-0.324220
-0.289060
-0.285160
-0.333980
-0.349610
-0.273440
-0.259770
-0.298830
-0.273440
-0.289060
-0.298830
-0.263670
-0.234380
-0.193360
-0.169920
-0.134770
-0.109380
-0.080078
-0.044922
-0.025391
-0.009766
-0.003906
-0.029297
-0.048828
-0.070312
-0.103520
-0.148440
-0.183590
-0.218750
-0.253910
-0.289060
-0.314450
-0.314450
-0.330080
-0.333980
-0.343750
-0.339840
-0.333980
-0.349610
-0.353520
-0.343750
-0.353520
-0.349610
-0.353520
-0.339840
-0.324220
-0.298830
-0.289060
-0.263670
-0.253910
-0.224610
-0.193360
-0.193360
-0.164060
-0.160160
-0.183590
-0.234380
-0.289060
-0.330080
-0.353520
-0.388670
-0.384770
-0.378910
-0.388670
-0.384770
-0.330080
-0.074219
0.275390
0.500000
0.410160
-0.029297
-0.298830
-0.398440
-0.423830
-0.429690
-0.449220
-0.449220
-0.423830
-0.449220
-0.439450
-0.414060
-0.429690
-0.419920
-0.398440
-0.378910
-0.378910
-0.378910
-0.359380
-0.363280
-0.339840
-0.314450
-0.304690
-0.285160
-0.250000
-0.224610
-0.193360
-0.164060
-0.144530
-0.128910
-0.115230
-0.125000
-0.125000
-0.138670
-0.164060
-0.205080
-0.228520
-0.244140
-0.259770
-0.285160
-0.308590
-0.330080
-0.343750
-0.333980
-0.353520
-0.375000
-0.359380
-0.363280
-0.353520
-0.349610
-0.353520
-0.349610
-0.333980
-0.353520
-0.339840
-0.330080
-0.289060
-0.269530
-0.259770
-0.240230
-0.208980
-0.193360
-0.173830
-0.173830
-0.193360
-0.228520
-0.273440
-0.314450
-0.349610
-0.353520
-0.359380
-0.349610
-0.339840
-0.353520
-0.289060
-0.064453
0.255860
0.500000
0.410160
-0.003906
-0.253910
-0.369140
-0.388670
-0.384770
-0.398440
-0.408200
-0.398440
-0.404300
-0.388670
-0.378910
-0.388670
-0.349610
-0.339840
-0.333980
-0.324220
-0.308590
-0.298830
-0.279300
-0.259770
-0.253910
-0.240230
-0.208980
-0.164060
-0.134770
-0.089844
-0.074219
-0.044922
-0.025391
-0.019531
-0.009766
-0.003906
-0.019531
-0.029297
-0.070312
-0.099609
-0.119140
-0.154300
-0.164060
-0.189450
-0.218750
-0.218750
-0.214840
-0.228520
-0.234380
-0.234380
-0.234380
-0.240230
-0.224610
-0.208980
-0.199220
-0.199220
-0.205080
-0.179690
-0.164060
-0.148440
-0.125000
-0.115230
-0.109380
-0.089844
-0.048828
-0.035156
-0.025391
-0.019531
-0.058594
-0.093750
-0.154300
-0.169920
-0.193360
-0.205080
-0.189450
-0.199220
-0.189450
-0.183590
-0.070312
0.210940
0.529300
0.605470
0.345700
0.031250
-0.125000
-0.193360
-0.208980
-0.218750
-0.228520
-0.199220
-0.214840
-0.205080
-0.199220
-0.205080
-0.183590
-0.169920
-0.164060
-0.164060
-0.144530
-0.134770
-0.138670
-0.109380
-0.093750
-0.089844
-0.044922
-0.013672
0.005859
0.041016
0.064453
0.085938
0.099609
0.095703
0.099609
0.095703
0.115230
0.080078
0.035156
-0.025391
-0.074219
-0.115230
-0.138670
-0.173830
-0.183590
-0.224610
-0.224610
-0.259770
-0.259770
-0.269530
-0.285160
-0.273440
-0.259770
-0.234380
-0.240230
-0.228520
-0.214840
-0.218750
-0.208980
-0.189450
-0.148440
-0.119140
-0.103520
-0.089844
-0.054688
-0.044922
-0.009766
-0.009766
-0.025391
-0.044922
-0.089844
-0.128910
-0.154300
-0.160160
-0.160160
-0.164060
-0.154300
-0.148440
-0.099609
0.076172
0.355470
0.640620
0.679690
0.300780
0.060547
-0.058594
-0.093750
-0.093750
-0.099609
-0.099609
-0.093750
-0.089844
-0.074219
-0.054688
-0.044922
-0.048828
-0.039062
-0.025391
-0.019531
0.000000
0.019531
0.044922
0.041016
0.064453
0.085938
0.099609
0.134770
0.175780
0.205080
0.234380
0.255860
0.279300
0.285160
0.300780
0.300780
0.291020
0.255860
0.255860
0.234380
0.205080
0.179690
0.156250
0.140620
0.125000
0.111330
0.095703
0.095703
0.085938
0.089844
0.080078
0.089844
0.095703
0.089844
0.099609
0.115230
0.115230
0.115230
0.115230
0.134770
0.160160
0.185550
0.189450
0.220700
0.250000
0.255860
0.275390
0.294920
0.269530
0.246090
0.195310
0.156250
0.121090
0.111330
0.115230
0.156250
0.189450
0.214840
0.250000
0.425780
0.724610
0.990230
1.025400
0.595700
0.349610
0.240230
0.205080
0.185550
0.185550
0.179690
0.175780
0.175780
0.175780
0.179690
0.175780
0.185550
0.189450
0.201170
0.195310
0.205080
0.210940
0.220700
0.230470
0.240230
0.255860
0.279300
0.291020
0.320310
0.349610
0.371090
0.384770
0.404300
0.419920
0.416020
0.419920
0.410160
0.384770
0.349610
0.324220
0.300780
0.269530
0.234380
0.210940
0.185550
0.166020
0.160160
0.160160
0.156250
0.160160
0.144530
0.150390
0.140620
0.144530
0.140620
0.144530
0.140620
0.134770
0.140620
0.160160
0.175780
0.201170
0.201170
0.224610
0.255860
0.255860
0.279300
0.291020
0.255860
0.224610
0.185550
0.140620
0.095703
0.064453
0.050781
0.060547
0.064453
0.050781
0.044922
0.285160
0.599610
0.869140
0.878910
0.464840
0.205080
0.070312
0.015625
0.000000
-0.003906
-0.009766
0.005859
-0.009766
-0.013672
0.015625
0.041016
0.025391
-0.019531
-0.025391
0.044922
0.060547
0.044922
0.044922
0.060547
0.035156
0.035156
0.050781
0.085938
0.125000
0.150390
0.156250
0.205080
0.230470
0.224610
0.250000
0.265620
0.224610
0.210940
0.175780
0.175780
0.150390
0.085938
0.044922
0.070312
0.041016
0.005859
0.015625
0.000000
-0.029297
-0.035156
-0.029297
-0.039062
0.000000
-0.009766
-0.029297
0.000000
0.005859
0.009766
-0.013672
0.009766
0.060547
0.070312
0.035156
0.060547
0.115230
0.121090
0.111330
0.160160
0.140620
0.095703
0.031250
-0.035156
-0.013672
0.000000
-0.083984
-0.089844
-0.070312
-0.074219
-0.058594
0.121090
0.425780
0.789060
0.900390
0.560550
0.156250
-0.044922
-0.089844
-0.115230
-0.103520
-0.144530
-0.160160
-0.115230
-0.093750
-0.138670
-0.109380
-0.074219
-0.119140
-0.125000
-0.109380
-0.048828
-0.054688
-0.070312
-0.009766
-0.025391
-0.029297
0.015625
0.005859
0.085938
0.080078
0.160160
0.185550
0.166020
0.214840
0.185550
0.210940
0.179690
0.160160
0.134770
0.121090
0.140620
0.050781
0.000000
-0.044922
-0.054688
-0.025391
-0.048828
-0.099609
-0.103520
-0.074219
-0.119140
-0.138670
-0.074219
-0.054688
-0.193360
-0.218750
-0.214840
-0.234380
-0.214840
-0.189450
-0.199220
-0.183590
-0.164060
-0.148440
-0.103520
-0.093750
-0.058594
-0.035156
-0.054688
-0.093750
-0.128910
-0.193360
-0.240230
-0.253910
-0.250000
-0.244140
-0.240230
-0.228520
-0.208980
-0.054688
0.234380
0.615230
0.744140
0.490230
0.060547
-0.164060
-0.240230
-0.250000
-0.259770
-0.253910
-0.250000
-0.250000
-0.250000
-0.240230
-0.234380
-0.234380
-0.214840
-0.208980
-0.189450
-0.183590
-0.164060
-0.148440
-0.134770
-0.115230
-0.080078
-0.064453
-0.039062
-0.019531
0.025391
0.044922
0.070312
0.089844
0.115230
0.121090
0.125000
0.099609
0.095703
0.064453
0.044922
0.019531
-0.013672
-0.044922
-0.074219
-0.103520
-0.115230
-0.119140
-0.125000
-0.138670
-0.144530
-0.134770
-0.138670
-0.144530
-0.148440
-0.144530
-0.154300
-0.138670
-0.128910
-0.119140
-0.093750
-0.089844
-0.058594
-0.039062
-0.003906
0.005859
0.000000
0.044922
0.054688
0.031250
-0.019531
-0.054688
-0.109380
-0.125000
-0.144530
-0.144530
-0.144530
-0.138670
-0.138670
-0.103520
0.085938
0.384770
0.699220
0.759770
0.359380
0.031250
-0.128910
-0.164060
-0.179690
-0.183590
-0.169920
-0.173830
-0.173830
-0.169920
-0.164060
-0.160160
-0.148440
-0.138670
-0.128910
-0.119140
-0.109380
-0.089844
-0.080078
-0.070312
-0.044922
-0.025391
-0.019531
0.009766
0.025391
0.064453
0.099609
0.130860
0.150390
0.160160
0.179690
0.179690
0.169920
0.134770
0.095703
0.064453
0.041016
0.019531
-0.009766
-0.035156
-0.058594
-0.064453
-0.093750
-0.103520
-0.089844
-0.083984
-0.080078
-0.074219
-0.093750
-0.058594
-0.013672
0.000000
-0.003906
0.044922
0.044922
0.064453
0.089844
0.095703
0.125000
0.150390
0.166020
0.185550
0.210940
0.195310
0.169920
0.175780
0.111330
0.050781
0.009766
0.000000
0.000000
0.005859
0.000000
0.019531
0.044922
0.255860
0.560550
0.833980
0.855470
0.390620
0.130860
0.019531
-0.019531
-0.035156
-0.035156
-0.039062
-0.035156
-0.039062
-0.029297
-0.039062
-0.039062
-0.044922
-0.039062
-0.035156
-0.035156
-0.013672
0.000000
0.019531
0.031250
0.064453
0.095703
0.099609
0.134770
0.156250
0.195310
0.234380
0.250000
0.246090
0.275390
0.269530
0.279300
0.265620
0.250000
0.224610
0.185550
0.156250
0.130860
0.095703
0.070312
0.044922
0.031250
0.025391
0.005859
0.000000
-0.003906
0.000000
-0.003906
0.009766
0.000000
0.015625
0.009766
0.019531
0.015625
0.015625
0.044922
0.064453
0.089844
0.099609
0.125000
0.150390
0.144530
0.169920
0.166020
0.125000
0.080078
0.060547
0.009766
-0.013672
-0.025391
-0.039062
-0.044922
-0.035156
-0.044922
0.025391
0.240230
0.544920
0.775390
0.685550
0.279300
0.054688
-0.035156
-0.064453
-0.074219
-0.074219
-0.064453
-0.074219
-0.070312
-0.074219
-0.074219
-0.070312
-0.054688
-0.058594
-0.048828
-0.039062
-0.025391
-0.025391
-0.013672
0.005859
0.015625
0.031250
0.054688
0.070312
0.095703
0.121090
0.144530
0.166020
0.185550
0.201170
0.185550
0.210940
0.189450
0.166020
0.134770
0.105470
0.070312
0.064453
0.019531
0.000000
-0.019531
-0.044922
-0.054688
-0.070312
-0.093750
-0.103520
-0.103520
-0.103520
-0.083984
-0.103520
-0.109380
-0.093750
-0.089844
-0.093750
-0.080078
-0.058594
-0.035156
-0.025391
-0.025391
0.000000
0.019531
0.031250
0.000000
-0.044922
-0.099609
-0.138670
-0.199220
-0.244140
-0.279300
-0.279300
-0.273440
-0.263670
-0.285160
-0.269530
-0.205080
0.005859
0.300780
0.535160
0.445310
0.054688
-0.169920
-0.263670
-0.279300
-0.269530
-0.289060
-0.289060
-0.285160
-0.273440
-0.263670
-0.259770
-0.244140
-0.234380
-0.228520
-0.214840
-0.199220
-0.189450
-0.173830
-0.164060
-0.160160
-0.148440
-0.125000
-0.109380
-0.070312
-0.058594
-0.029297
0.000000
0.019531
0.041016
0.054688
0.064453
0.054688
0.041016
0.031250
0.005859
-0.044922
-0.058594
-0.080078
-0.115230
-0.125000
-0.160160
-0.173830
-0.199220
-0.189450
-0.199220
-0.189450
-0.205080
-0.193360
-0.189450
-0.205080
-0.179690
-0.183590
-0.179690
-0.164060
-0.164060
-0.164060
-0.125000
-0.099609
-0.099609
-0.080078
-0.039062
-0.048828
-0.025391
-0.013672
-0.048828
-0.083984
-0.128910
-0.183590
-0.205080
-0.199220
-0.193360
-0.218750
-0.205080
-0.199220
-0.138670
0.060547
0.365230
0.589840
0.484380
0.085938
-0.134770
-0.218750
-0.250000
-0.259770
-0.250000
-0.259770
-0.244140
-0.240230
-0.250000
-0.244140
-0.234380
-0.250000
-0.234380
-0.244140
-0.218750
-0.208980
-0.193360
-0.199220
-0.189450
-0.173830
-0.144530
-0.125000
-0.089844
-0.070312
-0.044922
-0.025391
-0.003906
0.015625
0.025391
0.019531
0.031250
0.005859
-0.035156
-0.074219
-0.099609
-0.134770
-0.164060
-0.189450
-0.208980
-0.208980
-0.205080
-0.199220
-0.208980
-0.214840
-0.214840
-0.208980
-0.214840
-0.214840
-0.218750
-0.214840
-0.214840
-0.193360
-0.193360
-0.164060
-0.119140
-0.080078
-0.054688
-0.035156
-0.013672
0.009766
0.005859
0.050781
0.054688
-0.019531
-0.054688
-0.083984
-0.125000
-0.154300
-0.179690
-0.179690
-0.173830
-0.183590
-0.189450
-0.138670
0.089844
0.419920
0.644530
0.525390
0.105470
-0.099609
-0.179690
-0.224610
-0.240230
-0.250000
-0.259770
-0.263670
-0.269530
-0.259770
-0.259770
-0.253910
-0.244140
-0.289060
-0.294920
-0.253910
-0.234380
-0.263670
-0.285160
-0.250000
-0.224610
-0.224610
-0.214840
-0.173830
-0.148440
-0.099609
-0.080078
-0.058594
-0.039062
-0.044922
-0.025391
-0.029297
-0.048828
-0.044922
-0.064453
-0.128910
-0.164060
-0.169920
-0.189450
-0.228520
-0.263670
-0.269530
-0.273440
-0.279300
-0.259770
-0.263670
-0.285160
-0.294920
-0.285160
-0.285160
-0.259770
-0.244140
-0.263670
-0.285160
-0.253910
-0.214840
-0.189450
-0.173830
-0.144530
-0.128910
-0.083984
-0.074219
-0.064453
-0.058594
-0.103520
-0.154300
-0.164060
-0.189450
-0.253910
-0.263670
-0.240230
-0.253910
-0.244140
-0.224610
-0.148440
0.125000
0.494140
0.734380
0.564450
0.089844
-0.138670
-0.259770
-0.285160
-0.244140
-0.273440
-0.308590
-0.298830
-0.263670
-0.285160
-0.228520
-0.224610
-0.273440
-0.259770
-0.253910
-0.193360
-0.160160
-0.218750
-0.193360
-0.179690
-0.183590
-0.134770
-0.115230
-0.044922
-0.048828
-0.058594
0.019531
0.000000
0.050781
0.060547
-0.044922
-0.064453
-0.134770
-0.164060
-0.160160
-0.199220
-0.250000
-0.244140
-0.294920
-0.308590
-0.279300
-0.363280
-0.318360
-0.285160
-0.363280
-0.359380
-0.375000
-0.384770
-0.289060
-0.263670
-0.324220
-0.330080
-0.304690
-0.324220
-0.269530
-0.250000
-0.234380
-0.218750
-0.183590
-0.148440
-0.125000
-0.089844
-0.048828
-0.074219
-0.115230
-0.160160
-0.199220
-0.228520
-0.250000
-0.250000
-0.244140
-0.240230
-0.234380
-0.214840
-0.044922
0.250000
0.625000
0.744140
0.480470
0.044922
-0.173830
-0.244140
-0.259770
-0.259770
-0.259770
-0.259770
-0.244140
-0.234380
-0.240230
-0.240230
-0.228520
-0.214840
-0.205080
-0.189450
-0.189450
-0.179690
-0.183590
-0.164060
-0.144530
-0.125000
-0.099609
-0.074219
-0.048828
-0.013672
0.019531
0.054688
0.070312
0.095703
0.111330
0.105470
0.095703
0.080078
0.041016
0.015625
-0.009766
-0.044922
-0.089844
-0.103520
-0.115230
-0.148440
-0.144530
-0.144530
-0.154300
-0.160160
-0.169920
-0.173830
-0.164060
-0.148440
-0.154300
-0.138670
-0.138670
-0.144530
-0.128910
-0.099609
-0.074219
-0.064453
-0.044922
0.000000
0.015625
0.019531
0.044922
0.031250
0.009766
-0.025391
-0.074219
-0.115230
-0.144530
-0.138670
-0.160160
-0.138670
-0.138670
-0.144530
-0.070312
0.189450
0.535160
0.765620
0.685550
0.220700
-0.044922
-0.125000
-0.160160
-0.164060
-0.154300
-0.160160
-0.164060
-0.164060
-0.164060
-0.164060
-0.144530
-0.125000
-0.134770
-0.115230
-0.099609
-0.093750
-0.080078
-0.070312
-0.058594
-0.058594
-0.035156
-0.035156
-0.003906
0.044922
0.064453
0.089844
0.121090
0.134770
0.150390
0.169920
0.160160
0.140620
0.115230
0.085938
0.070312
0.025391
-0.003906
-0.035156
-0.070312
-0.093750
-0.093750
-0.115230
-0.119140
-0.109380
-0.103520
-0.144530
-0.138670
-0.134770
-0.128910
-0.115230
-0.119140
-0.119140
-0.119140
-0.109380
-0.080078
-0.035156
-0.013672
0.000000
0.019531
0.044922
0.064453
0.076172
0.041016
0.019531
-0.035156
-0.074219
-0.099609
-0.125000
-0.115230
-0.109380
-0.103520
-0.115230
-0.083984
0.099609
0.400390
0.689450
0.720700
0.310550
0.025391
-0.093750
-0.134770
-0.144530
-0.144530
-0.148440
-0.144530
-0.134770
-0.138670
-0.125000
-0.119140
-0.109380
-0.119140
-0.093750
-0.080078
-0.089844
-0.058594
-0.048828
-0.039062
-0.025391
-0.009766
0.009766
0.035156
0.064453
0.085938
0.121090
0.156250
0.160160
0.185550
0.195310
0.189450
0.169920
0.175780
0.140620
0.111330
0.076172
0.041016
0.025391
0.005859
-0.039062
-0.048828
-0.044922
-0.064453
-0.058594
-0.058594
-0.064453
-0.083984
-0.074219
-0.054688
-0.058594
-0.058594
-0.044922
-0.039062
-0.013672
0.000000
0.031250
0.041016
0.076172
0.115230
0.111330
0.144530
0.166020
0.121090
0.095703
0.076172
0.025391
-0.019531
-0.025391
-0.009766
-0.013672
0.000000
0.025391
0.044922
0.160160
0.425780
0.759770
0.833980
0.539060
0.214840
0.054688
0.019531
0.000000
-0.019531
-0.029297
-0.019531
-0.003906
0.000000
-0.009766
0.005859
0.000000
0.009766
0.015625
0.000000
0.000000
0.000000
0.000000
0.005859
0.015625
0.041016
0.050781
0.054688
0.089844
0.115230
0.134770
0.166020
0.175780
0.201170
0.201170
0.189450
0.166020
0.160160
0.121090
0.089844
0.095703
0.044922
0.005859
-0.025391
-0.044922
-0.070312
-0.080078
-0.074219
-0.103520
-0.103520
-0.103520
-0.109380
-0.115230
-0.093750
-0.083984
-0.093750
-0.099609
-0.109380
-0.099609
-0.083984
-0.070312
-0.115230
-0.148440
-0.154300
-0.128910
-0.134770
-0.109380
-0.134770
-0.148440
-0.189450
-0.253910
-0.289060
-0.324220
-0.324220
-0.330080
-0.339840
-0.333980
-0.330080
-0.273440
-0.083984
0.255860
0.470700
0.365230
-0.039062
-0.253910
-0.343750
-0.363280
-0.359380
-0.378910
-0.388670
-0.394530
-0.378910
-0.384770
-0.369140
-0.375000
-0.359380
-0.353520
-0.359380
-0.353520
-0.330080
-0.330080
-0.330080
-0.314450
-0.308590
-0.289060
-0.259770
-0.244140
-0.224610
-0.205080
-0.164060
-0.138670
-0.119140
-0.119140
-0.119140
-0.125000
-0.138670
-0.164060
-0.193360
-0.218750
-0.250000
-0.279300
-0.298830
-0.318360
-0.343750
-0.359380
-0.369140
-0.375000
-0.384770
-0.384770
-0.388670
-0.384770
-0.378910
-0.378910
-0.363280
-0.359380
-0.369140
-0.375000
-0.353520
-0.333980
-0.314450
-0.308590
-0.298830
-0.250000
-0.240230
-0.205080
-0.193360
-0.234380
-0.259770
-0.269530
-0.294920
-0.318360
-0.330080
-0.349610
-0.353520
-0.318360
-0.285160
-0.289060
-0.169920
0.134770
0.484380
0.554690
0.189450
-0.148440
-0.285160
-0.333980
-0.339840
-0.353520
-0.333980
-0.330080
-0.349610
-0.353520
-0.353520
-0.324220
-0.308590
-0.353520
-0.369140
-0.330080
-0.304690
-0.289060
-0.285160
-0.289060
-0.253910
-0.244140
-0.250000
-0.234380
-0.208980
-0.134770
-0.109380
-0.119140
-0.089844
-0.048828
-0.044922
-0.093750
-0.093750
-0.083984
-0.080078
-0.169920
-0.244140
-0.294920
-0.384770
-0.439450
-0.484380
-0.464840
-0.458980
-0.478520
-0.494140
-0.484380
-0.478520
-0.498050
-0.488280
-0.443360
-0.449220
-0.433590
-0.453120
-0.458980
-0.439450
-0.414060
-0.369140
-0.359380
-0.378910
-0.330080
-0.273440
-0.234380
-0.250000
-0.263670
-0.285160
-0.318360
-0.339840
-0.408200
-0.429690
-0.384770
-0.443360
-0.453120
-0.384770
-0.439450
-0.369140
-0.128910
0.224610
0.529300
0.550780
0.076172
-0.285160
-0.384770
-0.404300
-0.414060
-0.384770
-0.443360
-0.408200
-0.398440
-0.363280
-0.353520
-0.353520
-0.378910
-0.398440
-0.369140
-0.333980
-0.279300
-0.285160
-0.259770
-0.224610
-0.240230
-0.273440
-0.218750
-0.154300
-0.148440
-0.089844
-0.054688
-0.058594
-0.003906
0.005859
0.015625
0.025391
0.031250
-0.009766
-0.025391
-0.070312
-0.109380
-0.148440
-0.154300
-0.119140
-0.179690
-0.228520
-0.208980
-0.228520
-0.214840
-0.205080
-0.250000
-0.193360
-0.169920
-0.173830
-0.164060
-0.218750
-0.173830
-0.154300
-0.179690
-0.109380
-0.058594
-0.048828
-0.115230
-0.064453
-0.029297
-0.019531
0.019531
0.025391
-0.009766
-0.039062
-0.093750
-0.128910
-0.144530
-0.144530
-0.138670
-0.128910
-0.134770
-0.115230
0.015625
0.320310
0.714840
0.878910
0.660160
0.195310
-0.048828
-0.134770
-0.148440
-0.164060
-0.169920
-0.164060
-0.164060
-0.148440
-0.144530
-0.138670
-0.119140
-0.119140
-0.109380
-0.083984
-0.074219
-0.058594
-0.058594
-0.029297
-0.009766
0.009766
0.025391
0.044922
0.080078
0.111330
0.150390
0.175780
0.201170
0.214840
0.220700
0.224610
0.205080
0.185550
0.175780
0.140620
0.111330
0.076172
0.054688
0.025391
0.000000
-0.019531
-0.048828
-0.054688
-0.058594
-0.074219
-0.080078
-0.074219
-0.074219
-0.093750
-0.099609
-0.089844
-0.083984
-0.103520
-0.099609
-0.070312
-0.048828
-0.025391
-0.025391
0.000000
0.025391
0.019531
0.050781
0.041016
0.015625
-0.003906
-0.058594
-0.103520
-0.144530
-0.160160
-0.164060
-0.144530
-0.160160
-0.148440
-0.109380
0.130860
0.464840
0.714840
0.724610
0.201170
-0.054688
-0.164060
-0.218750
-0.224610
-0.228520
-0.234380
-0.240230
-0.244140
-0.234380
-0.234380
-0.214840
-0.214840
-0.208980
-0.214840
-0.214840
-0.205080
-0.189450
-0.183590
-0.169920
-0.179690
-0.144530
-0.119140
-0.099609
-0.058594
-0.039062
-0.003906
0.005859
0.019531
0.009766
0.044922
0.025391
0.015625
0.000000
-0.039062
-0.058594
-0.083984
-0.128910
-0.169920
-0.193360
-0.205080
-0.224610
-0.214840
-0.259770
-0.244140
-0.253910
-0.244140
-0.259770
-0.263670
-0.253910
-0.259770
-0.259770
-0.244140
-0.240230
-0.224610
-0.205080
-0.169920
-0.164060
-0.169920
-0.134770
-0.125000
-0.080078
-0.074219
-0.109380
-0.144530
-0.193360
-0.259770
-0.279300
-0.285160
-0.289060
-0.298830
-0.285160
-0.289060
-0.259770
-0.039062
0.279300
0.529300
0.539060
0.070312
-0.173830
-0.289060
-0.318360
-0.330080
-0.324220
-0.339840
-0.349610
-0.330080
-0.330080
-0.304690
-0.294920
-0.279300
-0.285160
-0.279300
-0.269530
-0.273440
-0.269530
-0.269530
-0.259770
-0.253910
-0.240230
-0.228520
-0.199220
-0.169920
-0.128910
-0.099609
-0.070312
-0.048828
-0.039062
-0.025391
-0.029297
-0.054688
-0.074219
-0.099609
-0.125000
-0.160160
-0.183590
-0.205080
-0.218750
-0.240230
-0.250000
-0.263670
-0.269530
-0.253910
-0.244140
-0.250000
-0.218750
-0.214840
-0.208980
-0.199220
-0.205080
-0.179690
-0.173830
-0.160160
-0.138670
-0.099609
-0.089844
-0.070312
-0.035156
-0.029297
0.009766
0.019531
0.000000
-0.035156
-0.074219
-0.119140
-0.144530
-0.160160
-0.144530
-0.154300
-0.148440
-0.138670
-0.109380
0.060547
0.359380
0.644530
0.679690
0.230470
0.009766
-0.115230
-0.144530
-0.144530
-0.138670
-0.144530
-0.125000
-0.134770
-0.125000
-0.119140
-0.103520
-0.093750
-0.115230
-0.093750
-0.070312
-0.064453
-0.070312
-0.048828
-0.044922
-0.025391
0.015625
0.041016
0.064453
0.070312
0.099609
0.130860
0.156250
0.175780
0.195310
0.201170
0.205080
0.185550
0.169920
0.156250
0.130860
0.105470
0.076172
0.050781
0.019531
0.005859
-0.003906
-0.009766
-0.039062
-0.013672
-0.009766
-0.039062
-0.025391
-0.025391
-0.048828
-0.019531
-0.025391
-0.009766
-0.013672
-0.003906
0.019531
0.060547
0.070312
0.054688
0.105470
0.115230
0.156250
0.160160
0.125000
0.089844
0.064453
0.009766
-0.009766
-0.035156
-0.039062
-0.048828
-0.039062
-0.044922
-0.013672
0.160160
0.449220
0.740230
0.769530
0.380860
0.121090
0.019531
-0.025391
-0.054688
-0.058594
-0.044922
-0.035156
-0.025391
-0.025391
-0.019531
0.000000
0.015625
0.019531
0.019531
0.025391
0.044922
0.054688
0.060547
0.070312
0.089844
0.089844
0.121090
0.156250
0.179690
0.205080
0.240230
0.255860
0.279300
0.285160
0.294920
0.279300
0.269530
0.259770
0.255860
0.240230
0.214840
0.185550
0.156250
0.140620
0.130860
0.115230
0.105470
0.089844
0.089844
0.095703
0.095703
0.111330
0.099609
0.105470
0.115230
0.125000
0.115230
0.125000
0.144530
0.175780
0.201170
0.210940
0.234380
0.275390
0.279300
0.320310
0.330080
0.304690
0.275390
0.234380
0.205080
0.179690
0.166020
0.160160
0.156250
0.160160
0.169920
0.189450
0.335940
0.589840
0.888670
0.955080
0.634770
0.339840
0.214840
0.166020
0.156250
0.144530
0.144530
0.150390
0.160160
0.169920
0.185550
0.185550
0.205080
0.220700
0.224610
0.230470
0.250000
0.259770
0.279300
0.291020
0.304690
0.324220
0.335940
0.345700
0.359380
0.394530
0.416020
0.429690
0.460940
0.480470
0.484380
0.480470
0.490230
0.464840
0.455080
0.419920
0.400390
0.375000
0.349610
0.314450
0.285160
0.269530
0.250000
0.224610
0.234380
0.259770
0.250000
0.246090
0.255860
0.279300
0.265620
0.246090
0.255860
0.265620
0.259770
0.294920
0.355470
0.359380
0.324220
0.371090
0.410160
0.416020
0.419920
0.394530
0.355470
0.320310
0.234380
0.169920
0.160160
0.205080
0.210940
0.195310
0.205080
0.224610
0.330080
0.615230
0.964840
1.080100
0.830080
0.455080
0.269530
0.214840
0.185550
0.201170
0.169920
0.140620
0.166020
0.179690
0.175780
0.169920
0.160160
0.156250
0.179690
0.224610
0.210940
0.205080
0.234380
0.230470
0.246090
0.255860
0.259770
0.300780
0.355470
0.394530
0.410160
0.400390
0.445310
0.484380
0.449220
0.445310
0.490230
0.484380
0.439450
0.404300
0.394530
0.349610
0.285160
0.265620
0.259770
0.275390
0.230470
0.214840
0.205080
0.255860
0.189450
0.175780
0.195310
0.220700
0.230470
0.210940
0.214840
0.234380
0.230470
0.259770
0.291020
0.294920
0.275390
0.314450
0.365230
0.419920
0.445310
0.380860
0.355470
0.304690
0.269530
0.201170
0.166020
0.160160
0.205080
0.246090
0.230470
0.205080
0.279300
0.525390
0.929690
1.144500
0.974610
0.500000
0.255860
0.179690
0.140620
0.111330
0.099609
0.089844
0.085938
0.099609
0.111330
0.144530
0.089844
0.105470
0.166020
0.140620
0.125000
0.156250
0.169920
0.175780
0.189450
0.224610
0.250000
0.265620
0.294920
0.330080
0.375000
0.410160
0.419920
0.429690
0.445310
0.455080
0.445310
0.425780
0.404300
0.371090
0.335940
0.294920
0.255860
0.224610
0.195310
0.185550
0.169920
0.150390
0.140620
0.140620
0.134770
0.140620
0.144530
0.150390
0.160160
0.160160
0.166020
0.169920
0.175780
0.189450
0.210940
0.230470
0.240230
0.265620
0.285160
0.291020
0.320310
0.330080
0.304690
0.259770
0.210940
0.166020
0.140620
0.115230
0.111330
0.111330
0.111330
0.105470
0.144530
0.349610
0.685550
0.968750
0.994140
0.509770
0.205080
0.085938
0.060547
0.060547
0.054688
0.050781
0.044922
0.050781
0.054688
0.050781
0.054688
0.050781
0.070312
0.076172
0.070312
0.089844
0.095703
0.099609
0.115230
0.125000
0.144530
0.175780
0.189450
0.220700
0.250000
0.275390
0.294920
0.320310
0.335940
0.345700
0.324220
0.320310
0.304690
0.275390
0.246090
0.205080
0.169920
0.140620
0.111330
0.085938
0.070312
0.044922
0.044922
0.044922
0.035156
0.035156
0.031250
0.019531
0.015625
0.035156
0.031250
0.050781
0.054688
0.064453
0.080078
0.095703
0.111330
0.134770
0.160160
0.166020
0.195310
0.179690
0.160160
0.125000
0.064453
0.031250
0.009766
0.000000
0.000000
0.005859
0.000000
0.000000
0.070312
0.314450
0.650390
0.855470
0.730470
0.291020
0.060547
-0.019531
-0.058594
-0.058594
-0.070312
-0.074219
-0.070312
-0.080078
-0.070312
-0.054688
-0.048828
-0.039062
-0.035156
-0.029297
-0.025391
-0.009766
0.000000
0.009766
0.019531
0.044922
0.050781
0.064453
0.089844
0.121090
0.156250
0.175780
0.205080
0.224610
0.224610
0.234380
0.214840
0.224610
0.185550
0.160160
0.115230
0.089844
0.060547
0.031250
0.015625
-0.009766
-0.025391
-0.044922
-0.044922
-0.070312
-0.058594
-0.054688
-0.070312
-0.048828
-0.044922
-0.054688
-0.044922
-0.048828
-0.048828
-0.054688
-0.009766
0.019531
0.015625
0.025391
0.064453
0.080078
0.089844
0.099609
0.064453
0.031250
-0.013672
-0.070312
-0.080078
-0.074219
-0.089844
-0.074219
-0.080078
-0.080078
-0.044922
0.160160
0.484380
0.724610
0.740230
0.259770
0.019531
-0.083984
-0.119140
-0.125000
-0.119140
-0.138670
-0.144530
-0.119140
-0.115230
-0.119140
-0.103520
-0.099609
-0.099609
-0.093750
-0.080078
-0.074219
-0.064453
-0.054688
-0.044922
-0.035156
-0.013672
0.009766
0.035156
0.060547
0.085938
0.115230
0.134770
0.140620
0.156250
0.160160
0.156250
0.140620
0.115230
0.095703
0.064453
0.031250
-0.009766
-0.029297
-0.044922
-0.070312
-0.089844
-0.099609
-0.115230
-0.115230
-0.119140
-0.115230
-0.109380
-0.125000
-0.125000
-0.119140
-0.128910
-0.119140
-0.099609
-0.115230
-0.093750
-0.058594
-0.048828
-0.029297
0.000000
0.019531
0.041016
0.054688
0.031250
0.015625
-0.013672
-0.035156
-0.048828
-0.054688
-0.064453
-0.054688
-0.048828
-0.054688
-0.035156
0.080078
0.330080
0.675780
0.759770
0.494140
0.134770
-0.003906
-0.070312
-0.093750
-0.093750
-0.103520
-0.115230
-0.119140
-0.093750
-0.103520
-0.103520
-0.119140
-0.099609
-0.080078
-0.074219
-0.083984
-0.083984
-0.058594
-0.048828
-0.039062
-0.025391
-0.029297
0.015625
0.031250
0.070312
0.085938
0.099609
0.121090
0.144530
0.140620
0.150390
0.140620
0.125000
0.085938
0.054688
0.015625
0.000000
-0.025391
-0.074219
-0.080078
-0.103520
-0.119140
-0.119140
-0.125000
-0.128910
-0.134770
-0.138670
-0.144530
-0.128910
-0.128910
-0.128910
-0.138670
-0.134770
-0.119140
-0.119140
-0.109380
-0.058594
-0.048828
-0.048828
-0.019531
-0.025391
0.009766
0.035156
0.009766
-0.044922
-0.080078
-0.125000
-0.160160
-0.173830
-0.183590
-0.193360
-0.189450
-0.205080
-0.160160
-0.025391
0.255860
0.550780
0.619140
0.275390
-0.003906
-0.148440
-0.189450
-0.214840
-0.214840
-0.214840
-0.224610
-0.218750
-0.228520
-0.205080
-0.208980
-0.205080
-0.193360
