0.480300
0.490150
0.500000
0.504930
0.514780
0.529560
0.545570
0.560340
0.575120
0.599750
0.619460
0.640390
0.660100
0.674880
0.684730
0.694580
0.684730
0.669950
0.645320
0.604680
0.565270
0.524630
0.495070
0.465520
0.444580
0.429800
0.419950
0.410100
0.410100
0.410100
0.410100
0.410100
0.410100
0.410100
0.415020
0.419950
0.424880
0.429800
0.434730
0.434730
0.434730
0.434730
0.434730
0.434730
0.434730
0.439660
0.439660
0.434730
0.434730
0.434730
0.439660
0.439660
0.444580
0.454430
0.470440
0.475370
0.495070
0.519700
0.529560
0.529560
0.524630
0.514780
0.490150
0.460590
0.434730
0.419950
0.410100
0.410100
0.410100
0.410100
0.410100
0.415020
0.424880
0.465520
0.565270
0.740150
0.859610
0.784480
0.589900
0.449510
0.405170
0.410100
0.415020
0.415020
0.415020
0.419950
0.419950
0.424880
0.429800
0.434730
0.439660
0.444580
0.454430
0.460590
0.465520
0.475370
0.480300
0.485220
0.495070
0.504930
0.514780
0.524630
0.539410
0.545570
0.565270
0.584980
0.604680
0.630540
0.650250
0.669950
0.684730
0.689660
0.694580
0.684730
0.669950
0.640390
0.599750
0.560340
0.519700
0.490150
0.460590
0.444580
0.429800
0.419950
0.415020
0.410100
0.410100
0.410100
0.410100
0.415020
0.419950
0.419950
0.419950
0.424880
0.429800
0.434730
0.434730
0.434730
0.434730
0.434730
0.434730
0.434730
0.434730
0.434730
0.434730
0.434730
0.434730
0.434730
0.439660
0.449510
0.460590
0.475370
0.480300
0.500000
0.524630
0.529560
0.524630
0.519700
0.500000
0.475370
0.444580
0.424880
0.415020
0.410100
0.405170
0.405170
0.405170
0.410100
0.415020
0.434730
0.480300
0.599750
0.774630
0.859610
0.735220
0.539410
0.424880
0.400250
0.410100
0.415020
0.415020
0.415020
0.419950
0.419950
0.424880
0.429800
0.439660
0.439660
0.444580
0.449510
0.460590
0.465520
0.475370
0.480300
0.485220
0.495070
0.504930
0.514780
0.524630
0.534480
0.550490
0.565270
0.584980
0.609610
0.630540
0.650250
0.669950
0.684730
0.689660
0.694580
0.679800
0.655170
0.624380
0.584980
0.550490
0.509850
0.475370
0.449510
0.434730
0.419950
0.415020
0.410100
0.405170
0.405170
0.405170
0.410100
0.410100
0.410100
0.415020
0.419950
0.424880
0.429800
0.429800
0.429800
0.429800
0.429800
0.429800
0.429800
0.429800
0.429800
0.429800
0.429800
0.429800
0.429800
0.429800
0.429800
0.439660
0.454430
0.465520
0.475370
0.500000
0.519700
0.529560
0.524630
0.514780
0.495070
0.470440
0.444580
0.419950
0.415020
0.410100
0.410100
0.410100
0.410100
0.415020
0.424880
0.454430
0.519700
0.669950
0.849750
0.900250
0.730300
0.529560
0.424880
0.410100
0.415020
0.419950
0.419950
0.419950
0.424880
0.429800
0.429800
0.434730
0.434730
0.444580
0.449510
0.460590
0.465520
0.475370
0.480300
0.485220
0.495070
0.504930
0.514780
0.524630
0.539410
0.555420
0.570200
0.589900
0.609610
0.635470
0.660100
0.679800
0.694580
0.704430
0.715520
0.704430
0.689660
0.665020
0.624380
0.584980
0.545570
0.509850
0.475370
0.454430
0.434730
0.424880
0.415020
0.415020
0.410100
0.410100
0.415020
0.415020
0.419950
0.419950
0.419950
0.429800
0.429800
0.434730
0.434730
0.434730
0.434730
0.439660
0.439660
0.439660
0.439660
0.439660
0.439660
0.439660
0.439660
0.439660
0.439660
0.439660
0.454430
0.465520
0.475370
0.485220
0.509850
0.524630
0.529560
0.524630
0.519700
0.500000
0.475370
0.444580
0.424880
0.415020
0.410100
0.410100
0.410100
0.410100
0.415020
0.424880
0.454430
0.524630
0.679800
0.844830
0.880540
0.679800
0.500000
0.415020
0.405170
0.415020
0.419950
0.419950
0.419950
0.424880
0.424880
0.434730
0.439660
0.444580
0.449510
0.449510
0.454430
0.465520
0.475370
0.480300
0.485220
0.495070
0.500000
0.514780
0.519700
0.529560
0.545570
0.560340
0.580050
0.599750
0.619460
0.640390
0.660100
0.674880
0.689660
0.694580
0.694580
0.679800
0.650250
0.614530
0.570200
0.534480
0.500000
0.470440
0.444580
0.429800
0.419950
0.415020
0.410100
0.410100
0.410100
0.410100
0.410100
0.415020
0.419950
0.419950
0.424880
0.429800
0.429800
0.434730
0.434730
0.439660
0.434730
0.434730
0.439660
0.439660
0.434730
0.434730
0.439660
0.439660
0.439660
0.439660
0.444580
0.454430
0.465520
0.475370
0.490150
0.519700
0.534480
0.539410
0.524630
0.514780
0.495070
0.465520
0.434730
0.419950
0.415020
0.410100
0.410100
0.410100
0.410100
0.410100
0.424880
0.460590
0.545570
0.709360
0.859610
0.869460
0.624380
0.465520
0.405170
0.400250
0.415020
0.415020
0.419950
0.419950
0.424880
0.429800
0.429800
0.434730
0.434730
0.439660
0.449510
0.454430
0.465520
0.475370
0.480300
0.485220
0.490150
0.500000
0.504930
0.519700
0.529560
0.545570
0.560340
0.580050
0.604680
0.624380
0.650250
0.669950
0.684730
0.694580
0.694580
0.684730
0.669950
0.640390
0.599750
0.560340
0.524630
0.495070
0.460590
0.439660
0.424880
0.415020
0.410100
0.410100
0.410100
0.405170
0.410100
0.410100
0.410100
0.415020
0.419950
0.419950
0.424880
0.429800
0.434730
0.434730
0.434730
0.434730
0.434730
0.434730
0.439660
0.439660
0.439660
0.439660
0.439660
0.439660
0.439660
0.444580
0.460590
0.475370
0.485220
0.500000
0.524630
0.539410
0.529560
0.529560
0.514780
0.495070
0.465520
0.439660
0.424880
0.419950
0.415020
0.410100
0.415020
0.415020
0.415020
0.429800
0.465520
0.560340
0.725370
0.854680
0.795570
0.599750
0.449510
0.405170
0.410100
0.415020
0.415020
0.415020
0.419950
0.424880
0.429800
0.434730
0.434730
0.439660
0.449510
0.454430
0.454430
0.460590
0.465520
0.475370
0.480300
0.490150
0.500000
0.509850
0.519700
0.529560
0.539410
0.560340
0.580050
0.604680
0.624380
0.650250
0.665020
0.679800
0.689660
0.694580
0.684730
0.665020
0.640390
0.599750
0.560340
0.519700
0.485220
0.460590
0.439660
0.429800
0.415020
0.410100
0.410100
0.405170
0.410100
0.410100
0.410100
0.410100
0.415020
0.419950
0.424880
0.429800
0.429800
0.429800
0.434730
0.434730
0.434730
0.434730
0.434730
0.434730
0.434730
0.434730
0.429800
0.429800
0.429800
0.434730
0.434730
0.439660
0.454430
0.465520
0.475370
0.495070
0.514780
0.519700
0.514780
0.504930
0.500000
0.475370
0.444580
0.419950
0.415020
0.410100
0.410100
0.410100
0.410100
0.410100
0.419950
0.449510
0.514780
0.660100
0.849750
0.910100
0.750000
0.545570
0.429800
0.410100
0.415020
0.415020
0.419950
0.419950
0.419950
0.429800
0.434730
0.439660
0.439660
0.444580
0.454430
0.460590
0.470440
0.475370
0.480300
0.485220
0.495070
0.504930
0.514780
0.519700
0.529560
0.545570
0.560340
0.580050
0.599750
0.619460
0.645320
0.665020
0.684730
0.699510
0.704430
0.704430
0.684730
0.665020
0.624380
0.584980
0.545570
0.504930
0.470440
0.444580
0.429800
0.415020
0.410100
0.400250
0.400250
0.400250
0.400250
0.405170
0.410100
0.410100
0.415020
0.419950
0.424880
0.429800
0.429800
0.429800
0.429800
0.429800
0.429800
0.429800
0.429800
0.429800
0.429800
0.424880
0.424880
0.424880
0.424880
0.424880
0.434730
0.449510
0.465520
0.470440
0.490150
0.514780
0.519700
0.519700
0.514780
0.500000
0.470440
0.444580
0.415020
0.410100
0.405170
0.400250
0.400250
0.405170
0.405170
0.415020
0.429800
0.485220
0.609610
0.784480
0.864530
0.740150
0.539410
0.424880
0.400250
0.410100
0.415020
0.415020
0.415020
0.419950
0.419950
0.424880
0.429800
0.434730
0.434730
0.439660
0.449510
0.460590
0.465520
0.470440
0.480300
0.485220
0.495070
0.500000
0.509850
0.519700
0.534480
0.550490
0.565270
0.584980
0.604680
0.624380
0.645320
0.665020
0.674880
0.684730
0.684730
0.674880
0.650250
0.619460
0.584980
0.545570
0.504930
0.470440
0.444580
0.429800
0.415020
0.410100
0.405170
0.400250
0.400250
0.400250
0.400250
0.400250
0.405170
0.410100
0.415020
0.419950
0.424880
0.424880
0.424880
0.429800
0.429800
0.429800
0.429800
0.434730
0.434730
0.434730
0.434730
0.429800
0.429800
0.429800
0.429800
0.439660
0.454430
0.465520
0.475370
0.495070
0.514780
0.529560
0.524630
0.519700
0.500000
0.475370
0.449510
0.424880
0.410100
0.405170
0.400250
0.400250
0.405170
0.405170
0.410100
0.424880
0.465520
0.570200
0.745070
0.859610
0.769700
0.570200
0.439660
0.400250
0.405170
0.410100
0.415020
0.415020
0.415020
0.419950
0.429800
0.429800
0.434730
0.439660
0.449510
0.454430
0.454430
0.460590
0.470440
0.475370
0.480300
0.485220
0.495070
0.504930
0.514780
0.524630
0.539410
0.555420
0.580050
0.599750
0.624380
0.645320
0.655170
0.674880
0.684730
0.684730
0.674880
0.655170
0.624380
0.584980
0.545570
0.514780
0.480300
0.454430
0.434730
0.419950
0.410100
0.405170
0.400250
0.400250
0.400250
0.405170
0.410100
0.415020
0.415020
0.419950
0.419950
0.424880
0.429800
0.429800
0.429800
0.429800
0.434730
0.434730
0.429800
0.429800
0.429800
0.429800
0.429800
0.429800
0.429800
0.429800
0.434730
0.449510
0.465520
0.475370
0.485220
0.509850
0.524630
0.519700
0.514780
0.500000
0.480300
0.454430
0.429800
0.415020
0.405170
0.400250
0.405170
0.405170
0.410100
0.410100
0.424880
0.449510
0.524630
0.674880
0.834980
0.859610
0.650250
0.475370
0.410100
0.400250
0.410100
0.415020
0.415020
0.415020
0.419950
0.424880
0.429800
0.429800
0.439660
0.444580
0.449510
0.454430
0.460590
0.465520
0.475370
0.485220
0.490150
0.500000
0.504930
0.519700
0.529560
0.539410
0.555420
0.575120
0.599750
0.619460
0.640390
0.655170
0.674880
0.684730
0.694580
0.684730
0.669950
0.645320
0.609610
0.570200
0.529560
0.495070
0.465520
0.439660
0.429800
0.415020
0.410100
0.400250
0.400250
0.400250
0.400250
0.405170
0.410100
0.415020
0.415020
0.419950
0.424880
0.429800
0.429800
0.429800
0.434730
0.429800
0.429800
0.429800
0.434730
0.434730
0.429800
0.429800
0.429800
0.429800
0.429800
0.434730
0.449510
0.460590
0.475370
0.485220
0.504930
0.519700
0.524630
0.514780
0.509850
0.495070
0.470440
0.434730
0.419950
0.415020
0.410100
0.410100
0.405170
0.410100
0.415020
0.429800
0.460590
0.539410
0.704430
0.880540
0.915020
0.704430
0.514780
0.424880
0.415020
0.419950
0.419950
0.419950
0.419950
0.424880
0.429800
0.429800
0.434730
0.444580
0.454430
0.460590
0.465520
0.465520
0.475370
0.480300
0.490150
0.500000
0.504930
0.514780
0.529560
0.539410
0.550490
0.570200
0.589900
0.609610
0.635470
0.655170
0.674880
0.694580
0.704430
0.715520
0.709360
0.689660
0.665020
0.624380
0.584980
0.545570
0.509850
0.475370
0.454430
0.439660
0.429800
0.419950
0.415020
0.415020
0.415020
0.415020
0.415020
0.415020
0.419950
0.424880
0.429800
0.434730
0.439660
0.439660
0.444580
0.444580
0.444580
0.444580
0.439660
0.444580
0.444580
0.444580
0.439660
0.439660
0.439660
0.439660
0.439660
0.449510
0.460590
0.480300
0.490150
0.504930
0.524630
0.534480
0.524630
0.519700
0.504930
0.490150
0.460590
0.434730
0.419950
0.419950
0.415020
0.415020
0.415020
0.415020
0.419950
0.434730
0.475370
0.584980
0.759850
0.874380
0.789410
0.589900
0.449510
0.410100
0.419950
0.424880
0.429800
0.429800
0.429800
0.434730
0.439660
0.439660
0.449510
0.449510
0.454430
0.460590
0.470440
0.480300
0.485220
0.490150
0.495070
0.500000
0.509850
0.519700
0.529560
0.545570
0.560340
0.575120
0.594830
0.619460
0.645320
0.665020
0.679800
0.694580
0.699510
0.704430
0.694580
0.674880
0.645320
0.609610
0.565270
0.524630
0.490150
0.460590
0.439660
0.429800
0.415020
0.410100
0.410100
0.405170
0.410100
0.410100
0.415020
0.415020
0.419950
0.419950
0.429800
0.429800
0.429800
0.434730
0.434730
0.434730
0.434730
0.434730
0.434730
0.434730
0.434730
0.434730
0.434730
0.434730
0.434730
0.439660
0.444580
0.454430
0.470440
0.480300
0.490150
0.509850
0.524630
0.529560
0.524630
0.514780
0.495070
0.470440
0.444580
0.424880
0.415020
0.410100
0.410100
0.410100
0.410100
0.410100
0.424880
0.449510
0.509850
0.650250
0.825120
0.864530
0.694580
0.509850
0.419950
0.410100
0.419950
0.424880
0.424880
0.429800
0.429800
0.429800
0.434730
0.439660
0.444580
0.449510
0.454430
0.460590
0.465520
0.475370
0.480300
0.490150
0.495070
0.504930
0.514780
0.524630
0.534480
0.545570
0.565270
0.584980
0.599750
0.624380
0.645320
0.665020
0.679800
0.694580
0.699510
0.699510
0.684730
0.660100
0.624380
0.584980
0.545570
0.509850
0.475370
0.454430
0.434730
0.419950
0.415020
0.415020
0.410100
0.415020
0.415020
0.415020
0.419950
0.419950
0.424880
0.429800
0.434730
0.434730
0.439660
0.439660
0.439660
0.444580
0.444580
0.449510
0.444580
0.439660
0.439660
0.439660
0.444580
0.444580
0.444580
0.449510
0.460590
0.475370
0.485220
0.495070
0.519700
0.534480
0.539410
0.524630
0.509850
0.495070
0.470440
0.444580
0.429800
0.419950
0.419950
0.415020
0.415020
0.415020
0.415020
0.424880
0.449510
0.514780
0.655170
0.830050
0.864530
0.679800
0.500000
0.419950
0.410100
0.415020
0.419950
0.419950
0.424880
0.429800
0.434730
0.439660
0.444580
0.449510
0.449510
0.454430
0.460590
0.465520
0.475370
0.485220
0.495070
0.500000
0.504930
0.514780
0.519700
0.534480
0.550490
0.565270
0.584980
0.604680
0.624380
0.650250
0.669950
0.684730
0.699510
0.704430
0.699510
0.684730
0.655170
0.624380
0.584980
0.545570
0.509850
0.475370
0.454430
0.434730
0.424880
0.415020
0.410100
0.410100
0.410100
0.410100
0.415020
0.415020
0.415020
0.415020
0.419950
0.419950
0.424880
0.429800
0.434730
0.434730
0.434730
0.434730
0.434730
0.429800
0.434730
0.434730
0.434730
0.434730
0.434730
0.434730
0.434730
0.444580
0.454430
0.470440
0.480300
0.495070
0.509850
0.514780
0.504930
0.500000
0.490150
0.470440
0.444580
0.424880
0.410100
0.405170
0.405170
0.405170
0.405170
0.405170
0.415020
0.434730
0.495070
0.624380
0.820200
0.905170
0.774630
0.560340
0.434730
0.410100
0.410100
0.415020
0.415020
0.415020
0.419950
0.424880
0.429800
0.434730
0.439660
0.449510
0.454430
0.460590
0.465520
0.475370
0.480300
0.485220
0.495070
0.500000
0.514780
0.519700
0.534480
0.550490
0.565270
0.580050
0.604680
0.624380
0.650250
0.669950
0.689660
0.699510
0.709360
0.715520
0.699510
0.669950
0.635470
0.594830
0.555420
0.519700
0.490150
0.460590
0.444580
0.429800
0.419950
0.415020
0.415020
0.415020
0.415020
0.415020
0.415020
0.419950
0.419950
0.424880
0.429800
0.434730
0.434730
0.439660
0.439660
0.439660
0.439660
0.439660
0.434730
0.434730
0.434730
0.434730
0.434730
0.434730
0.434730
0.439660
0.449510
0.460590
0.475370
0.480300
0.495070
0.519700
0.529560
0.524630
0.519700
0.504930
0.480300
0.454430
0.434730
0.419950
0.415020
0.410100
0.410100
0.410100
0.410100
0.415020
0.429800
0.475370
0.584980
0.754930
0.864530
0.779560
0.580050
0.444580
0.405170
0.410100
0.419950
0.419950
0.419950
0.424880
0.429800
0.429800
0.434730
0.439660
0.439660
0.449510
0.454430
0.460590
0.470440
0.480300
0.485220
0.495070
0.500000
0.504930
0.514780
0.524630
0.539410
0.555420
0.570200
0.589900
0.619460
0.640390
0.655170
0.674880
0.684730
0.694580
0.699510
0.684730
0.665020
0.635470
0.594830
0.555420
0.519700
0.485220
0.454430
0.434730
0.424880
0.415020
0.410100
0.410100
0.410100
0.410100
0.410100
0.415020
0.415020
0.419950
0.419950
0.424880
0.429800
0.429800
0.434730
0.439660
0.439660
0.439660
0.439660
0.439660
0.439660
0.439660
0.439660
0.439660
0.439660
0.434730
0.434730
0.444580
0.454430
0.475370
0.480300
0.500000
0.524630
0.534480
0.524630
0.519700
0.504930
0.485220
0.454430
0.429800
0.415020
0.415020
0.415020
0.415020
0.415020
0.415020
0.419950
0.434730
0.475370
0.575120
0.740150
0.864530
0.789410
0.594830
0.454430
0.410100
0.419950
0.424880
0.424880
0.424880
0.429800
0.434730
0.434730
0.434730
0.439660
0.449510
0.449510
0.454430
0.460590
0.465520
0.475370
0.485220
0.495070
0.500000
0.504930
0.514780
0.524630
0.539410
0.550490
0.565270
0.584980
0.609610
0.630540
0.650250
0.669950
0.684730
0.694580
0.699510
0.694580
0.669950
0.640390
0.604680
0.565270
0.524630
0.490150
0.465520
0.444580
0.429800
0.419950
0.415020
0.410100
0.410100
0.410100
0.410100
0.410100
0.415020
0.415020
0.419950
0.419950
0.419950
0.429800
0.429800
0.434730
0.429800
0.429800
0.434730
0.429800
0.429800
0.424880
0.424880
0.424880
0.424880
0.424880
0.429800
0.439660
0.454430
0.465520
0.475370
0.495070
0.514780
0.524630
0.519700
0.504930
0.495070
0.470440
0.444580
0.419950
0.410100
0.405170
0.400250
0.405170
0.405170
0.410100
0.410100
0.424880
0.470440
0.584980
0.764780
0.869460
0.764780
0.560340
0.429800
0.400250
0.405170
0.410100
0.415020
0.415020
0.419950
0.424880
0.429800
0.429800
0.434730
0.439660
0.444580
0.449510
0.454430
0.460590
0.465520
0.475370
0.480300
0.490150
0.500000
0.504930
0.519700
0.534480
0.550490
0.565270
0.584980
0.609610
0.635470
0.660100
0.679800
0.694580
0.699510
0.704430
0.694580
0.669950
0.635470
0.594830
0.555420
0.514780
0.480300
0.454430
0.439660
0.424880
0.415020
0.410100
0.410100
0.410100
0.410100
0.410100
0.415020
0.415020
0.419950
0.419950
0.424880
0.424880
0.429800
0.429800
0.429800
0.429800
0.429800
0.429800
0.429800
0.429800
0.429800
0.429800
0.429800
0.429800
0.429800
0.429800
0.439660
0.454430
0.465520
0.475370
0.495070
0.514780
0.519700
0.509850
0.504930
0.490150
0.465520
0.434730
0.419950
0.410100
0.405170
0.410100
0.410100
0.410100
0.410100
0.424880
0.454430
0.529560
0.689660
0.864530
0.895320
0.684730
0.500000
0.419950
0.410100
0.415020
0.419950
0.419950
0.424880
0.429800
0.429800
0.434730
0.439660
0.444580
0.449510
0.454430
0.460590
0.465520
0.475370
0.480300
0.485220
0.495070
0.504930
0.514780
0.524630
0.534480
0.555420
0.570200
0.589900
0.614530
0.635470
0.655170
0.674880
0.689660
0.704430
0.709360
0.704430
0.689660
0.665020
0.624380
0.584980
0.545570
0.509850
0.480300
0.454430
0.439660
0.429800
0.419950
0.415020
0.415020
0.415020
0.419950
0.419950
0.424880
0.429800
0.429800
0.434730
0.434730
0.439660
0.439660
0.444580
0.444580
0.444580
0.444580
0.444580
0.439660
0.439660
0.439660
0.439660
0.439660
0.439660
0.439660
0.449510
0.460590
0.475370
0.485220
0.500000
0.524630
0.539410
0.529560
0.524630
0.509850
0.490150
0.460590
0.434730
0.419950
0.415020
0.415020
0.415020
0.415020
0.415020
0.419950
0.434730
0.470440
0.575120
0.745070
0.874380
0.805420
0.599750
0.454430
0.410100
0.415020
0.419950
0.424880
0.424880
0.424880
0.429800
0.429800
0.434730
0.434730
0.439660
0.449510
0.460590
0.465520
0.470440
0.480300
0.485220
0.495070
0.500000
0.509850
0.519700
0.529560
0.539410
0.550490
0.570200
0.589900
0.614530
0.635470
0.655170
0.674880
0.694580
0.704430
0.704430
0.699510
0.679800
0.650250
0.609610
0.565270
0.529560
0.500000
0.470440
0.449510
0.434730
0.429800
0.424880
0.419950
0.419950
0.419950
0.419950
0.419950
0.419950
0.424880
0.429800
0.429800
0.434730
0.434730
0.434730
0.439660
0.439660
0.439660
0.439660
0.439660
0.439660
0.439660
0.439660
0.444580
0.444580
0.444580
0.444580
0.454430
0.470440
0.480300
0.490150
0.514780
0.534480
0.539410
0.529560
0.519700
0.504930
0.475370
0.444580
0.419950
0.415020
0.415020
0.410100
0.410100
0.410100
0.415020
0.419950
0.444580
0.500000
0.630540
0.800490
0.854680
0.715520
0.524630
0.419950
0.405170
0.410100
0.415020
0.415020
0.415020
0.415020
0.419950
0.424880
0.429800
0.434730
0.439660
0.444580
0.454430
0.460590
0.470440
0.480300
0.485220
0.490150
0.500000
0.509850
0.519700
0.529560
0.545570
0.560340
0.575120
0.599750
0.619460
0.640390
0.660100
0.674880
0.684730
0.694580
0.694580
0.684730
0.660100
0.630540
0.589900
0.545570
0.509850
0.475370
0.454430
0.439660
0.429800
0.415020
0.415020
0.415020
0.415020
0.415020
0.415020
0.419950
0.419950
0.419950
0.424880
0.429800
0.434730
0.434730
0.434730
0.434730
0.439660
0.439660
0.439660
0.439660
0.439660
0.439660
0.439660
0.439660
0.439660
0.439660
0.439660
0.454430
0.465520
0.475370
0.490150
0.514780
0.529560
0.529560
0.519700
0.514780
0.495070
0.470440
0.439660
0.419950
0.415020
0.410100
0.410100
0.410100
0.410100
0.410100
0.419950
0.449510
0.514780
0.669950
0.839900
0.880540
0.684730
0.500000
0.415020
0.405170
0.410100
0.415020
0.415020
0.415020
0.415020
0.419950
0.424880
0.429800
0.434730
0.444580
0.449510
0.454430
0.465520
0.475370
0.480300
0.485220
0.490150
0.500000
0.504930
0.519700
0.529560
0.545570
0.560340
0.580050
0.599750
0.624380
0.650250
0.669950
0.689660
0.699510
0.704430
0.709360
0.689660
0.665020
0.619460
0.580050
0.539410
0.504930
0.470440
0.449510
0.429800
0.419950
0.415020
0.410100
0.410100
0.410100
0.410100
0.415020
0.415020
0.415020
0.415020
0.419950
0.424880
0.429800
0.434730
0.434730
0.434730
0.434730
0.434730
0.434730
0.434730
0.434730
0.434730
0.434730
0.434730
0.434730
0.434730
0.439660
0.454430
0.465520
0.475370
0.485220
0.509850
0.524630
0.519700
0.514780
0.509850
0.490150
0.460590
0.429800
0.415020
0.405170
0.400250
0.405170
0.405170
0.405170
0.410100
0.429800
0.470440
0.565270
0.740150
0.880540
0.820200
0.619460
0.460590
0.405170
0.410100
0.415020
0.415020
0.419950
0.419950
0.424880
0.429800
0.434730
0.439660
0.449510
0.454430
0.460590
0.465520
0.470440
0.475370
0.480300
0.495070
0.500000
0.509850
0.519700
0.529560
0.539410
0.555420
0.570200
0.589900
0.609610
0.635470
0.660100
0.674880
0.689660
0.699510
0.704430
0.699510
0.674880
0.645320
0.609610
0.570200
0.529560
0.495070
0.465520
0.444580
0.429800
0.419950
0.415020
0.415020
0.415020
0.415020
0.415020
0.419950
0.419950
0.424880
0.424880
0.429800
0.434730
0.434730
0.434730
0.439660
0.439660
0.439660
0.439660
0.439660
0.439660
0.439660
0.439660
0.439660
0.439660
0.434730
0.434730
0.444580
0.460590
0.475370
0.485220
0.500000
0.524630
0.534480
0.529560
0.524630
0.514780
0.495070
0.465520
0.434730
0.424880
0.419950
0.415020
0.410100
0.410100
0.415020
0.419950
0.434730
0.470440
0.570200
0.740150
0.864530
0.795570
0.599750
0.460590
0.410100
0.415020
0.419950
0.419950
0.419950
0.424880
0.429800
0.434730
0.434730
0.434730
0.439660
0.449510
0.449510
0.454430
0.460590
0.465520
0.475370
0.485220
0.495070
0.504930
0.514780
0.524630
0.539410
0.555420
0.570200
0.589900
0.609610
0.630540
0.650250
0.669950
0.684730
0.699510
0.704430
0.694580
0.669950
0.645320
0.604680
0.565270
0.524630
0.495070
0.465520
0.444580
0.429800
0.415020
0.410100
0.410100
0.410100
0.415020
0.415020
0.415020
0.419950
0.424880
0.429800
0.429800
0.434730
0.434730
0.439660
0.439660
0.439660
0.439660
0.439660
0.439660
0.434730
0.434730
0.434730
0.434730
0.434730
0.434730
0.434730
0.439660
0.454430
0.470440
0.480300
0.495070
0.519700
0.529560
0.529560
0.524630
0.514780
0.495070
0.465520
0.439660
0.424880
0.415020
0.415020
0.415020
0.415020
0.415020
0.419950
0.429800
0.465520
0.555420
0.715520
0.859610
0.810340
0.614530
0.460590
0.410100
0.410100
0.419950
0.419950
0.419950
0.424880
0.424880
0.429800
0.429800
0.434730
0.439660
0.444580
0.454430
0.460590
0.465520
0.470440
0.475370
0.480300
0.490150
0.495070
0.504930
0.519700
0.529560
0.545570
0.560340
0.580050
0.604680
0.624380
0.645320
0.660100
0.674880
0.684730
0.694580
0.689660
0.669950
0.645320
0.604680
0.560340
0.524630
0.495070
0.465520
0.444580
0.429800
0.419950
0.415020
0.410100
0.410100
0.410100
0.410100
0.415020
0.419950
0.419950
0.419950
0.424880
0.429800
0.434730
0.439660
0.439660
0.439660
0.439660
0.439660
0.439660
0.434730
0.434730
0.434730
0.434730
0.434730
0.434730
0.429800
0.434730
0.454430
0.470440
0.480300
0.495070
0.519700
0.529560
0.519700
0.519700
0.504930
0.485220
0.454430
0.434730
0.419950
0.410100
0.410100
0.415020
0.415020
0.415020
0.419950
0.434730
0.480300
0.584980
0.764780
0.890390
0.810340
0.599750
0.449510
0.405170
0.410100
0.415020
0.415020
0.419950
0.419950
0.419950
0.429800
0.434730
0.434730
0.439660
0.449510
0.454430
0.460590
0.465520
0.470440
0.475370
0.485220
0.495070
0.504930
0.514780
0.524630
0.539410
0.555420
0.570200
0.589900
0.614530
0.640390
0.665020
0.679800
0.699510
0.709360
0.715520
0.699510
0.674880
0.645320
0.604680
0.560340
0.519700
0.490150
0.460590
0.439660
0.429800
0.419950
0.415020
0.415020
0.415020
0.415020
0.415020
0.415020
0.415020
0.419950
0.424880
0.429800
0.429800
0.434730
0.429800
0.429800
0.434730
0.434730
0.434730
0.434730
0.434730
0.434730
0.439660
0.434730
0.439660
0.434730
0.434730
0.439660
0.454430
0.465520
0.475370
0.490150
0.514780
0.529560
0.524630
0.519700
0.509850
0.490150
0.460590
0.434730
0.419950
0.415020
0.410100
0.410100
0.410100
0.415020
0.415020
0.429800
0.475370
0.580050
0.754930
0.874380
0.800490
0.599750
0.454430
0.410100
0.410100
0.419950
0.419950
0.419950
0.419950
0.424880
0.429800
0.429800
0.434730
0.439660
0.449510
0.454430
0.460590
0.465520
0.475370
0.485220
0.490150
0.495070
0.504930
0.509850
0.519700
0.529560
0.545570
0.565270
0.584980
0.609610
0.630540
0.650250
0.669950
0.684730
0.694580
0.699510
0.689660
0.669950
0.640390
0.599750
0.560340
0.519700
0.485220
0.460590
0.439660
0.424880
0.415020
0.410100
0.410100
0.410100
0.410100
0.410100
0.415020
0.415020
0.419950
0.419950
0.424880
0.429800
0.429800
0.429800
0.434730
0.434730
0.434730
0.439660
0.439660
0.439660
0.434730
0.434730
0.434730
0.434730
0.434730
0.434730
0.439660
0.454430
0.470440
0.480300
0.495070
0.519700
0.529560
0.524630
0.519700
0.509850
0.490150
0.460590
0.429800
0.419950
0.410100
0.410100
0.410100
0.410100
0.410100
0.415020
0.424880
0.465520
0.570200
0.745070
0.864530
0.789410
0.589900
0.444580
0.400250
0.410100
0.415020
0.415020
0.415020
0.415020
0.415020
0.424880
0.429800
0.434730
0.439660
0.449510
0.454430
0.465520
0.470440
0.475370
0.480300
0.485220
0.495070
0.504930
0.514780
0.524630
0.539410
0.555420
0.570200
0.594830
0.614530
0.635470
0.655170
0.669950
0.684730
0.694580
0.694580
0.684730
0.669950
0.640390
0.599750
0.560340
0.519700
0.485220
0.460590
0.439660
0.424880
0.415020
0.410100
0.410100
0.410100
0.410100
0.410100
0.410100
0.415020
0.415020
0.419950
0.424880
0.429800
0.429800
0.434730
0.434730
0.434730
0.434730
0.434730
0.439660
0.434730
0.434730
0.434730
0.434730
0.434730
0.434730
0.434730
0.439660
0.454430
0.465520
0.475370
0.495070
0.519700
0.529560
0.524630
0.519700
0.509850
0.490150
0.454430
0.429800
0.415020
0.410100
0.410100
0.410100
0.410100
0.410100
0.419950
0.434730
0.470440
0.570200
0.740150
0.864530
0.789410
0.589900
0.449510
0.405170
0.410100
0.415020
0.419950
0.419950
0.419950
0.424880
0.429800
0.429800
0.434730
0.439660
0.449510
0.454430
0.460590
0.465520
0.470440
0.475370
0.480300
0.490150
0.500000
0.509850
0.519700
0.534480
0.545570
0.565270
0.584980
0.604680
0.624380
0.645320
0.660100
0.674880
0.689660
0.694580
0.684730
0.665020
0.635470
0.599750
0.560340
0.519700
0.490150
0.460590
0.439660
0.429800
0.419950
0.410100
0.410100
0.410100
0.410100
0.410100
0.415020
0.415020
0.419950
0.419950
0.424880
0.424880
0.429800
0.429800
0.434730
0.434730
0.434730
0.434730
0.434730
0.434730
0.434730
0.429800
0.429800
0.429800
0.429800
0.429800
0.434730
0.449510
0.460590
0.475370
0.485220
0.509850
0.524630
0.519700
0.519700
0.509850
0.490150
0.460590
0.434730
0.415020
0.405170
0.405170
0.400250
0.400250
0.405170
0.410100
0.419950
0.454430
0.534480
0.699510
0.869460
0.890390
0.669950
0.485220
0.410100
0.405170
0.410100
0.415020
0.415020
0.415020
0.419950
0.419950
0.429800
0.434730
0.439660
0.444580
0.454430
0.460590
0.465520
0.470440
0.475370
0.480300
0.490150
0.500000
0.509850
0.519700
0.534480
0.550490
0.565270
0.584980
0.609610
0.630540
0.655170
0.669950
0.689660
0.704430
0.709360
0.699510
0.679800
0.650250
0.609610
0.570200
0.529560
0.495070
0.460590
0.434730
0.419950
0.410100
0.410100
0.405170
0.405170
0.405170
0.405170
0.410100
0.410100
0.415020
0.419950
0.419950
0.419950
0.424880
0.429800
0.429800
0.429800
0.434730
0.434730
0.429800
0.429800
0.434730
0.429800
0.429800
0.429800
0.429800
0.429800
0.429800
0.434730
0.449510
0.465520
0.475370
0.495070
0.514780
0.524630
0.519700
0.514780
0.500000
0.475370
0.444580
0.419950
0.410100
0.410100
0.405170
0.405170
0.410100
0.410100
0.419950
0.439660
0.495070
0.619460
0.795570
0.869460
0.740150
0.545570
0.429800
0.405170
0.410100
0.415020
0.415020
0.419950
0.419950
0.419950
0.429800
0.429800
0.434730
0.439660
0.444580
0.449510
0.454430
0.460590
0.470440
0.480300
0.485220
0.495070
0.504930
0.509850
0.519700
0.534480
0.550490
0.570200
0.589900
0.614530
0.635470
0.655170
0.669950
0.679800
0.689660
0.694580
0.679800
0.655170
0.624380
0.580050
0.545570
0.509850
0.475370
0.449510
0.434730
0.419950
0.415020
0.410100
0.405170
0.405170
0.410100
0.410100
0.410100
0.415020
0.415020
0.419950
0.419950
0.424880
0.429800
0.434730
0.434730
0.434730
0.439660
0.439660
0.434730
0.434730
0.429800
0.429800
0.429800
0.429800
0.434730
0.434730
0.439660
0.449510
0.465520
0.475370
0.490150
0.509850
0.524630
0.519700
0.514780
0.504930
0.480300
0.454430
0.429800
0.415020
0.410100
0.400250
0.400250
0.400250
0.405170
0.415020
0.424880
0.465520
0.565270
0.735220
0.854680
0.779560
0.584980
0.444580
0.400250
0.410100
0.415020
0.415020
0.415020
0.419950
0.419950
0.424880
0.429800
0.434730
0.434730
0.439660
0.449510
0.454430
0.460590
0.465520
0.475370
0.480300
0.485220
0.495070
0.504930
0.514780
0.524630
0.545570
0.560340
0.580050
0.599750
0.624380
0.645320
0.665020
0.679800
0.684730
0.694580
0.684730
0.665020
0.635470
0.599750
0.560340
0.519700
0.480300
0.460590
0.439660
0.424880
0.415020
0.410100
0.410100
0.405170
0.405170
0.410100
0.410100
0.415020
0.415020
0.419950
0.419950
0.419950
0.429800
0.429800
0.434730
0.434730
0.434730
0.434730
0.434730
0.434730
0.429800
0.429800
0.429800
0.429800
0.429800
0.429800
0.434730
0.449510
0.465520
0.475370
0.490150
0.509850
0.519700
0.519700
0.514780
0.500000
0.480300
0.454430
0.429800
0.415020
0.410100
0.405170
0.405170
0.405170
0.405170
0.410100
0.419950
0.454430
0.529560
0.689660
0.844830
0.859610
0.640390
0.470440
0.405170
0.400250
0.410100
0.410100
0.410100
0.410100
0.415020
0.419950
0.424880
0.429800
0.434730
0.439660
0.444580
0.449510
0.454430
0.465520
0.470440
0.480300
0.485220
0.490150
0.500000
0.514780
0.524630
0.539410
0.555420
0.570200
0.589900
0.614530
0.635470
0.655170
0.674880
0.684730
0.694580
0.684730
0.669950
0.640390
0.604680
0.565270
0.524630
0.490150
0.460590
0.439660
0.424880
0.415020
0.410100
0.400250
0.400250
0.400250
0.405170
0.410100
0.410100
0.410100
0.415020
0.419950
0.424880
0.429800
0.434730
0.434730
0.434730
0.434730
0.434730
0.429800
0.429800
0.429800
0.429800
0.429800
0.429800
0.429800
0.429800
0.429800
0.439660
0.454430
0.470440
0.480300
0.495070
0.514780
0.514780
0.514780
0.504930
0.485220
0.465520
0.434730
0.415020
0.410100
0.400250
0.400250
0.400250
0.400250
0.405170
0.415020
0.444580
0.509850
0.665020
0.854680
0.905170
0.730300
0.524630
0.415020
0.400250
0.410100
0.415020
0.415020
0.415020
0.419950
0.419950
0.424880
0.429800
0.434730
0.439660
0.449510
0.454430
0.460590
0.465520
0.475370
0.480300
0.490150
0.500000
0.509850
0.519700
0.529560
0.545570
0.560340
0.580050
0.599750
0.624380
0.645320
0.660100
0.674880
0.689660
0.694580
0.699510
0.674880
0.650250
0.614530
0.575120
0.534480
0.500000
0.470440
0.444580
0.429800
0.415020
0.410100
0.405170
0.400250
0.400250
0.405170
0.410100
0.410100
0.415020
0.419950
0.419950
0.424880
0.429800
0.429800
0.429800
0.429800
0.434730
0.434730
0.434730
0.434730
0.429800
0.429800
0.429800
0.429800
0.429800
0.429800
0.434730
0.444580
0.454430
0.470440
0.480300
0.504930
0.519700
0.524630
0.519700
0.514780
0.500000
0.475370
0.444580
0.415020
0.410100
0.405170
0.400250
0.400250
0.410100
0.410100
0.419950
0.444580
0.504930
0.640390
0.815270
0.864530
0.709360
0.519700
0.419950
0.405170
0.415020
0.415020
0.419950
0.419950
0.424880
0.429800
0.434730
0.434730
0.439660
0.444580
0.454430
0.460590
0.465520
0.470440
0.475370
0.480300
0.490150
0.495070
0.504930
0.519700
0.529560
0.545570
0.560340
0.580050
0.599750
0.624380
0.645320
0.665020
0.679800
0.694580
0.699510
0.699510
0.684730
0.655170
0.624380
0.584980
0.545570
0.509850
0.475370
0.454430
0.434730
0.424880
0.415020
0.410100
0.410100
0.410100
0.410100
0.410100
0.415020
0.415020
0.419950
0.419950
0.424880
0.429800
0.434730
0.434730
0.439660
0.439660
0.439660
0.439660
0.439660
0.439660
0.439660
0.444580
0.444580
0.439660
0.439660
0.439660
0.449510
0.460590
0.475370
0.485220
0.500000
0.524630
0.539410
0.529560
0.519700
0.504930
0.480300
0.454430
0.434730
0.419950
0.415020
0.415020
0.410100
0.415020
0.415020
0.419950
0.429800
0.470440
0.570200
0.740150
0.864530
0.795570
0.599750
0.460590
0.415020
0.419950
0.424880
0.429800
0.429800
0.429800
0.429800
0.434730
0.439660
0.444580
0.449510
0.454430
0.460590
0.465520
0.470440
0.475370
0.480300
0.485220
0.495070
0.504930
0.514780
0.529560
0.539410
0.550490
0.565270
0.584980
0.609610
0.630540
0.655170
0.674880
0.689660
0.699510
0.699510
0.689660
0.669950
0.645320
0.604680
0.565270
0.524630
0.490150
0.460590
0.439660
0.424880
0.415020
0.410100
0.400250
0.400250
0.405170
0.410100
0.410100
0.410100
0.410100
0.415020
0.419950
0.419950
0.429800
0.434730
0.434730
0.434730
0.439660
0.439660
0.439660
0.439660
0.439660
0.439660
0.434730
0.434730
0.434730
0.439660
0.444580
0.454430
0.470440
0.480300
0.500000
0.519700
0.529560
0.524630
0.519700
0.504930
0.480300
0.449510
0.424880
0.419950
0.415020
0.410100
0.410100
0.410100
0.410100
0.415020
0.434730
0.480300
0.584980
0.759850
0.864530
0.754930
0.555420
0.429800
0.405170
0.415020
0.419950
0.419950
0.419950
0.419950
0.424880
0.429800
0.429800
0.434730
0.444580
0.449510
0.454430
0.465520
0.475370
0.480300
0.485220
0.490150
0.500000
0.504930
0.519700
0.524630
0.539410
0.555420
0.575120
0.594830
0.619460
0.640390
0.660100
0.674880
0.694580
0.699510
0.704430
0.689660
0.665020
0.635470
0.594830
0.555420
0.519700
0.485220
0.454430
0.434730
0.419950
0.410100
0.405170
0.400250
0.400250
0.405170
0.410100
0.410100
0.415020
0.415020
0.419950
0.424880
0.429800
0.434730
0.434730
0.434730
0.439660
0.434730
0.434730
0.434730
0.434730
0.434730
0.434730
0.434730
0.434730
0.434730
0.434730
0.439660
0.454430
0.465520
0.475370
0.490150
0.514780
0.519700
0.514780
0.504930
0.500000
0.475370
0.449510
0.424880
0.410100
0.400250
0.400250
0.400250
0.400250
0.400250
0.415020
0.429800
0.480300
0.599750
0.789410
0.915020
0.820200
0.599750
0.444580
0.400250
0.405170
0.410100
0.415020
0.415020
0.415020
0.419950
0.419950
0.429800
0.434730
0.444580
0.449510
0.454430
0.460590
0.465520
0.475370
0.480300
0.490150
0.500000
0.504930
0.519700
0.529560
0.545570
0.560340
0.580050
0.599750
0.619460
0.645320
0.665020
0.679800
0.699510
0.709360
0.715520
0.699510
0.674880
0.645320
0.604680
0.565270
0.524630
0.490150
0.465520
0.444580
0.429800
0.419950
0.415020
0.415020
0.415020
0.415020
0.415020
0.419950
0.419950
0.424880
0.429800
0.429800
0.434730
0.434730
0.434730
0.439660
0.439660
0.439660
0.439660
0.439660
0.439660
0.439660
0.439660
0.434730
0.434730
0.434730
0.434730
0.439660
0.454430
0.470440
0.480300
0.500000
0.519700
0.529560
0.524630
0.519700
0.504930
0.485220
0.454430
0.429800
0.419950
0.415020
0.410100
0.410100
0.415020
0.415020
0.419950
0.429800
0.470440
0.575120
0.750000
0.869460
0.789410
0.589900
0.449510
0.410100
0.415020
0.424880
0.424880
0.429800
0.429800
0.429800
0.434730
0.439660
0.439660
0.444580
0.449510
0.454430
0.465520
0.475370
0.480300
0.485220
0.495070
0.504930
0.514780
0.519700
0.529560
0.545570
0.560340
0.580050
0.599750
0.619460
0.645320
0.665020
0.679800
0.694580
0.699510
0.704430
0.699510
0.674880
0.650250
0.609610
0.565270
0.519700
0.490150
0.460590
0.439660
0.424880
0.415020
0.410100
0.410100
0.410100
0.410100
0.410100
0.415020
0.419950
0.419950
0.424880
0.429800
0.434730
0.434730
0.439660
0.439660
0.439660
0.439660
0.439660
0.444580
0.439660
0.439660
0.439660
0.439660
0.439660
0.439660
0.449510
0.454430
0.470440
0.480300
0.485220
0.504930
0.534480
0.545570
0.539410
0.529560
0.519700
0.490150
0.460590
0.434730
0.419950
0.415020
0.415020
0.415020
0.415020
0.415020
0.419950
0.429800
0.470440
0.570200
0.745070
0.869460
0.795570
0.594830
0.449510
0.410100
0.415020
0.419950
0.419950
0.424880
0.424880
0.429800
0.434730
0.434730
0.439660
0.444580
0.449510
0.454430
0.465520
0.470440
0.475370
0.485220
0.490150
0.495070
0.504930
0.519700
0.529560
0.539410
0.560340
0.580050
0.599750
0.619460
0.640390
0.660100
0.674880
0.694580
0.699510
0.704430
0.694580
0.674880
0.645320
0.599750
0.560340
0.519700
0.490150
0.460590
0.439660
0.424880
0.415020
0.410100
0.405170
0.405170
0.405170
0.405170
0.410100
0.410100
0.415020
0.419950
0.419950
0.429800
0.429800
0.434730
0.434730
0.439660
0.439660
0.439660
0.434730
0.434730
0.439660
0.439660
0.439660
0.439660
0.444580
0.444580
0.449510
0.460590
0.475370
0.485220
0.504930
0.524630
0.539410
0.529560
0.524630
0.514780
0.490150
0.460590
0.434730
0.419950
0.415020
0.410100
0.410100
0.410100
0.410100
0.415020
0.429800
0.470440
0.575120
0.745070
0.864530
0.784480
0.584980
0.439660
0.400250
0.410100
0.415020
0.415020
0.419950
0.419950
0.419950
0.424880
0.429800
0.434730
0.439660
0.449510
0.454430
0.460590
0.465520
0.475370
0.480300
0.485220
0.495070
0.504930
0.514780
0.524630
0.539410
0.555420
0.570200
0.589900
0.609610
0.635470
0.655170
0.674880
0.689660
0.699510
0.704430
0.694580
0.669950
0.640390
0.599750
0.560340
0.519700
0.490150
0.460590
0.439660
0.419950
0.415020
0.410100
0.405170
0.405170
0.400250
0.400250
0.410100
0.410100
0.415020
0.415020
0.419950
0.419950
0.419950
0.424880
0.429800
0.429800
0.429800
0.429800
0.429800
0.429800
0.429800
0.429800
0.429800
0.429800
0.429800
0.429800
0.434730
0.449510
0.460590
0.465520
0.480300
0.504930
0.519700
0.514780
0.514780
0.504930
0.485220
0.454430
0.424880
0.410100
0.405170
0.405170
0.405170
0.410100
0.410100
0.415020
0.429800
0.465520
0.570200
0.750000
0.900250
0.839900
0.635470
0.470440
0.410100
0.410100
0.410100
0.410100
0.415020
0.415020
0.419950
0.419950
0.424880
0.429800
0.434730
0.439660
0.449510
0.460590
0.465520
0.475370
0.480300
0.490150
0.500000
0.504930
0.514780
0.524630
0.539410
0.555420
0.570200
0.594830
0.619460
0.645320
0.665020
0.684730
0.699510
0.715520
0.715520
0.704430
0.684730
0.655170
0.614530
0.570200
0.529560
0.495070
0.470440
0.449510
0.434730
0.424880
0.419950
0.415020
0.415020
0.415020
0.419950
0.419950
0.424880
0.429800
0.434730
0.439660
0.439660
0.449510
0.449510
0.449510
0.449510
0.449510
0.449510
0.449510
0.449510
0.449510
0.444580
0.439660
0.439660
0.439660
0.444580
0.444580
0.454430
0.470440
0.480300
0.495070
0.514780
0.539410
0.539410
0.539410
0.524630
0.509850
0.480300
0.449510
0.434730
0.424880
0.419950
0.419950
0.419950
0.419950
0.419950
0.434730
0.460590
0.529560
0.674880
0.844830
0.880540
0.689660
0.509850
0.424880
0.419950
0.429800
0.434730
0.434730
0.434730
0.434730
0.439660
0.439660
0.444580
0.449510
0.454430
0.460590
0.465520
0.475370
0.480300
0.485220
0.495070
0.500000
0.509850
0.519700
0.529560
0.545570
0.555420
0.570200
0.589900
0.609610
0.635470
0.655170
0.674880
0.694580
0.704430
0.715520
0.709360
0.694580
0.669950
0.635470
0.594830
0.550490
0.514780
0.485220
0.460590
0.444580
0.434730
0.429800
0.424880
0.424880
0.424880
0.419950
0.419950
0.419950
0.424880
0.429800
0.434730
0.434730
0.439660
0.439660
0.439660
0.439660
0.439660
0.449510
0.449510
0.444580
0.439660
0.439660
0.439660
0.439660
0.439660
0.439660
0.439660
0.449510
0.460590
0.480300
0.485220
0.500000
0.524630
0.539410
0.534480
0.524630
0.514780
0.490150
0.460590
0.434730
0.424880
0.415020
0.415020
0.410100
0.410100
0.410100
0.419950
0.434730
0.475370
0.575120
0.745070
0.864530
0.784480
0.589900
0.449510
0.410100
0.415020
0.419950
0.424880
0.419950
0.419950
0.424880
0.424880
0.429800
0.434730
0.439660
0.449510
0.454430
0.460590
0.470440
0.480300
0.485220
0.495070
0.500000
0.509850
0.519700
0.524630
0.539410
0.555420
0.570200
0.589900
0.609610
0.635470
0.655170
0.674880
0.694580
0.699510
0.704430
0.694580
0.674880
0.645320
0.604680
0.565270
0.524630
0.495070
0.465520
0.449510
0.434730
0.424880
0.419950
0.415020
0.415020
0.415020
0.415020
0.419950
0.419950
0.424880
0.424880
0.429800
0.434730
0.434730
0.434730
0.434730
0.434730
0.434730
0.439660
0.444580
0.439660
0.439660
0.439660
0.439660
0.439660
0.439660
0.439660
0.439660
0.449510
0.460590
0.475370
0.480300
0.500000
0.524630
0.529560
0.529560
0.519700
0.504930
0.480300
0.454430
0.429800
0.419950
0.415020
0.415020
0.410100
0.410100
0.415020
0.419950
0.444580
0.495070
0.614530
0.789410
0.869460
0.740150
0.539410
0.429800
0.410100
0.415020
0.419950
0.419950
0.419950
0.419950
0.424880
0.429800
0.434730
0.434730
0.439660
0.449510
0.454430
0.460590
0.465520
0.470440
0.475370
0.485220
0.495070
0.504930
0.514780
0.529560
0.539410
0.555420
0.570200
0.589900
0.614530
0.635470
0.660100
0.679800
0.694580
0.704430
0.709360
0.699510
0.669950
0.635470
0.599750
0.555420
0.519700
0.485220
0.454430
0.439660
0.429800
0.419950
0.415020
0.410100
0.410100
0.410100
0.410100
0.410100
0.410100
0.415020
0.419950
0.424880
0.429800
0.429800
0.429800
0.429800
0.434730
0.429800
0.429800
0.429800
0.429800
0.429800
0.429800
0.429800
0.429800
0.429800
0.429800
0.434730
0.449510
0.465520
0.475370
0.485220
0.509850
0.519700
0.524630
0.514780
0.504930
0.490150
0.460590
0.429800
0.415020
0.410100
0.405170
0.405170
0.405170
0.405170
0.415020
0.429800
0.465520
0.560340
0.730300
0.895320
0.905170
0.655170
0.480300
0.415020
0.415020
0.419950
0.419950
0.424880
0.429800
0.429800
0.434730
0.434730
0.439660
0.449510
0.454430
0.460590
0.465520
0.475370
0.480300
0.485220
0.495070
0.500000
0.509850
0.519700
0.529560
0.539410
0.555420
0.570200
0.589900
0.609610
0.635470
0.655170
0.674880
0.689660
0.704430
0.715520
0.704430
0.689660
0.655170
0.619460
0.580050
0.539410
0.509850
0.480300
0.454430
0.434730
0.424880
0.415020
0.415020
0.410100
0.415020
0.415020
0.415020
0.419950
0.419950
0.424880
0.429800
0.429800
0.434730
0.434730
0.439660
0.439660
0.439660
0.439660
0.439660
0.439660
0.439660
0.439660
0.439660
0.439660
0.439660
0.439660
0.439660
0.444580
0.454430
0.475370
0.480300
0.500000
0.519700
0.529560
0.524630
0.519700
0.504930
0.485220
0.460590
0.434730
0.419950
0.415020
0.410100
0.410100
0.410100
0.410100
0.419950
0.434730
0.475370
0.575120
0.740150
0.869460
0.795570
0.599750
0.449510
0.405170
0.410100
0.415020
0.419950
0.419950
0.424880
0.429800
0.429800
0.429800
0.434730
0.439660
0.444580
0.449510
0.454430
0.465520
0.475370
0.480300
0.490150
0.495070
0.504930
0.514780
0.519700
0.529560
0.539410
0.560340
0.584980
0.604680
0.624380
0.650250
0.665020
0.679800
0.689660
0.694580
0.684730
0.665020
0.635470
0.599750
0.560340
0.519700
0.490150
0.460590
0.434730
0.424880
0.415020
0.410100
0.410100
0.410100
0.410100
0.410100
0.410100
0.415020
0.415020
0.419950
0.424880
0.429800
0.429800
0.429800
0.434730
0.434730
0.434730
0.434730
0.434730
0.434730
0.434730
0.434730
0.434730
0.434730
0.434730
0.434730
0.439660
0.449510
0.460590
0.475370
0.485220
0.509850
0.524630
0.529560
0.519700
0.514780
0.500000
0.475370
0.444580
0.424880
0.415020
0.415020
0.410100
0.410100
0.410100
0.415020
0.429800
0.444580
0.500000
0.630540
0.800490
0.859610
0.720440
0.529560
0.424880
0.410100
0.415020
0.419950
0.419950
0.419950
0.424880
0.429800
0.434730
0.434730
0.439660
0.444580
0.454430
0.460590
0.465520
0.470440
0.475370
0.480300
0.490150
0.500000
0.509850
0.519700
0.529560
0.539410
0.555420
0.570200
0.589900
0.614530
0.635470
0.655170
0.674880
0.684730
0.694580
0.699510
0.684730
0.665020
0.630540
0.589900
0.550490
0.514780
0.480300
0.454430
0.434730
0.419950
0.415020
0.410100
0.410100
0.410100
0.410100
0.410100
0.415020
0.419950
0.419950
0.424880
0.429800
0.429800
0.434730
0.434730
0.434730
0.439660
0.439660
0.439660
0.439660
0.439660
0.434730
0.434730
0.434730
0.434730
0.434730
0.434730
0.439660
0.449510
0.460590
0.475370
0.485220
0.504930
0.519700
0.524630
0.514780
0.504930
0.490150
0.465520
0.439660
0.419950
0.415020
0.410100
0.405170
0.405170
0.405170
0.410100
0.419950
0.444580
0.509850
0.660100
0.839900
0.880540
0.694580
0.504930
0.415020
0.405170
0.415020
0.415020
0.419950
0.419950
0.419950
0.424880
0.424880
0.429800
0.434730
0.439660
0.444580
0.449510
0.460590
0.465520
0.475370
0.480300
0.485220
0.495070
0.504930
0.514780
0.529560
0.539410
0.560340
0.580050
0.599750
0.624380
0.650250
0.669950
0.684730
0.699510
0.704430
0.699510
0.684730
0.660100
0.619460
0.580050
0.539410
0.500000
0.470440
0.444580
0.429800
0.419950
0.415020
0.410100
0.405170
0.405170
0.410100
0.410100
0.415020
0.415020
0.419950
0.419950
0.424880
0.429800
0.429800
0.429800
0.434730
0.434730
0.434730
0.434730
0.434730
0.429800
0.429800
0.434730
0.434730
0.429800
0.429800
0.429800
0.434730
0.449510
0.460590
0.465520
0.490150
0.509850
0.514780
0.514780
0.509850
0.500000
0.475370
0.444580
0.419950
0.410100
0.410100
0.405170
0.405170
0.405170
0.410100
0.415020
0.434730
0.495070
0.624380
0.810340
0.890390
0.754930
0.545570
0.429800
0.405170
0.410100
0.415020
0.415020
0.419950
0.419950
0.424880
0.429800
0.434730
0.434730
0.439660
0.449510
0.454430
0.460590
0.470440
0.475370
0.480300
0.485220
0.495070
0.500000
0.514780
0.524630
0.539410
0.560340
0.580050
0.599750
0.619460
0.645320
0.665020
0.679800
0.694580
0.699510
0.704430
0.684730
0.660100
0.624380
0.589900
0.550490
0.509850
0.475370
0.454430
0.434730
0.419950
0.415020
0.410100
0.410100
0.410100
0.410100
0.410100
0.415020
0.415020
0.419950
0.424880
0.429800
0.429800
0.429800
0.434730
0.439660
0.439660
0.439660
0.439660
0.439660
0.439660
0.439660
0.439660
0.439660
0.439660
0.444580
0.444580
0.449510
0.460590
0.475370
0.480300
0.495070
0.514780
0.529560
0.534480
0.524630
0.519700
0.500000
0.475370
0.444580
0.424880
0.415020
0.415020
0.415020
0.415020
0.415020
0.415020
0.429800
0.454430
0.519700
0.669950
0.839900
0.880540
0.684730
0.500000
0.419950
0.410100
0.419950
0.419950
0.424880
0.424880
0.429800
0.429800
0.434730
0.439660
0.449510
0.449510
0.449510
0.454430
0.460590
0.465520
0.475370
0.480300
0.485220
0.495070
0.504930
0.514780
0.524630
0.539410
0.555420
0.570200
0.594830
0.619460
0.640390
0.660100
0.674880
0.689660
0.694580
0.699510
0.679800
0.650250
0.619460
0.580050
0.539410
0.504930
0.475370
0.449510
0.434730
0.419950
0.415020
0.410100
0.405170
0.405170
0.405170
0.410100
0.410100
0.415020
0.415020
0.419950
0.419950
0.424880
0.429800
0.434730
0.434730
0.434730
0.434730
0.429800
0.429800
0.434730
0.434730
0.434730
0.434730
0.434730
0.434730
0.434730
0.439660
0.454430
0.475370
0.485220
0.500000
0.519700
0.529560
0.524630
0.519700
0.504930
0.480300
0.454430
0.429800
0.415020
0.410100
0.410100
0.410100
0.410100
0.410100
0.415020
0.424880
0.460590
0.555420
0.720440
0.859610
0.800490
0.604680
0.449510
0.405170
0.410100
0.415020
0.419950
0.419950
0.424880
0.429800
0.429800
0.434730
0.434730
0.439660
0.444580
0.449510
0.454430
0.460590
0.470440
0.475370
0.485220
0.495070
0.500000
0.509850
0.519700
0.534480
0.545570
0.565270
0.580050
0.604680
0.624380
0.645320
0.665020
0.679800
0.689660
0.694580
0.684730
0.669950
0.645320
0.604680
0.560340
0.524630
0.490150
0.460590
0.439660
0.429800
0.419950
0.415020
0.410100
0.410100
0.410100
0.415020
0.415020
0.419950
0.419950
0.419950
0.424880
0.429800
0.429800
0.429800
0.434730
0.429800
0.429800
0.429800
0.434730
0.429800
0.429800
0.429800
0.429800
0.429800
0.429800
0.429800
0.429800
0.439660
0.454430
0.465520
0.480300
0.500000
0.519700
0.519700
0.514780
0.504930
0.495070
0.470440
0.444580
0.419950
0.415020
0.410100
0.410100
0.410100
0.410100
0.415020
0.419950
0.444580
0.504930
0.635470
0.820200
0.890390
0.750000
0.539410
0.424880
0.405170
0.410100
0.415020
0.415020
0.415020
0.419950
0.419950
0.429800
0.429800
0.434730
0.444580
0.449510
0.454430
0.460590
0.465520
0.475370
0.480300
0.485220
0.495070
0.504930
0.514780
0.524630
0.539410
0.560340
0.580050
0.599750
0.619460
0.645320
0.665020
0.679800
0.694580
0.699510
0.704430
0.684730
0.665020
0.630540
0.584980
0.545570
0.509850
0.475370
0.449510
0.434730
0.419950
0.415020
0.410100
0.410100
0.410100
0.410100
0.410100
0.415020
0.415020
0.415020
0.419950
0.419950
0.424880
0.424880
0.429800
0.434730
0.434730
0.434730
0.434730
0.434730
0.434730
0.434730
0.434730
0.434730
0.434730
0.429800
0.434730
0.439660
0.454430
0.465520
0.475370
0.485220
0.509850
0.519700
0.519700
0.514780
0.509850
0.490150
0.465520
0.434730
0.415020
0.410100
0.410100
0.410100
0.410100
0.410100
0.415020
0.424880
0.454430
0.539410
0.704430
0.864530
0.880540
0.655170
0.480300
0.410100
0.405170
0.415020
0.415020
0.415020
0.419950
0.424880
0.429800
0.434730
0.439660
0.444580
0.449510
0.454430
0.460590
0.465520
0.475370
0.480300
0.480300
0.485220
0.495070
0.504930
0.519700
0.534480
0.545570
0.560340
0.580050
0.604680
0.630540
0.650250
0.669950
0.679800
0.694580
0.699510
0.694580
0.674880
0.650250
0.609610
0.570200
0.529560
0.495070
0.465520
0.444580
0.429800
0.419950
0.415020
0.410100
0.410100
0.410100
0.410100
0.415020
0.415020
0.419950
0.419950
0.424880
0.429800
0.429800
0.434730
0.434730
0.434730
0.434730
0.434730
0.429800
0.429800
0.429800
0.429800
0.429800
0.429800
0.429800
0.429800
0.429800
0.439660
0.454430
0.465520
0.475370
0.495070
0.514780
0.524630
0.519700
0.509850
0.500000
0.475370
0.444580
0.424880
0.415020
0.410100
0.410100
0.410100
0.410100
0.410100
0.419950
0.434730
0.480300
0.589900
0.764780
0.864530
0.769700
0.570200
0.439660
0.405170
0.415020
0.419950
0.419950
0.419950
0.424880
0.429800
0.429800
0.434730
0.439660
0.439660
0.444580
0.454430
0.460590
0.465520
0.475370
0.480300
0.485220
0.495070
0.500000
0.509850
0.519700
0.529560
0.545570
0.560340
0.584980
0.604680
0.630540
0.650250
0.669950
0.679800
0.684730
0.694580
0.684730
0.660100
0.630540
0.589900
0.555420
0.519700
0.485220
0.454430
0.434730
0.419950
0.410100
0.410100
0.405170
0.405170
0.405170
0.405170
0.410100
0.410100
0.410100
0.415020
0.419950
0.424880
0.424880
0.424880
0.429800
0.429800
0.429800
0.429800
0.429800
0.429800
0.429800
0.429800
0.429800
0.429800
0.434730
0.434730
0.434730
0.449510
0.460590
0.475370
0.480300
0.500000
0.519700
0.524630
0.519700
0.509850
0.495070
0.470440
0.444580
0.419950
0.415020
0.410100
0.405170
0.410100
0.410100
0.410100
0.419950
0.444580
0.509850
0.650250
0.815270
0.859610
0.689660
0.509850
0.419950
0.410100
0.419950
0.419950
0.419950
0.419950
0.424880
0.429800
0.429800
0.434730
0.439660
0.439660
0.449510
0.449510
0.454430
0.465520
0.470440
0.480300
0.485220
0.495070
0.504930
0.514780
0.519700
0.534480
0.550490
0.570200
0.589900
0.609610
0.630540
0.650250
0.669950
0.679800
0.684730
0.689660
0.674880
0.650250
0.614530
0.575120
0.534480
0.500000
0.470440
0.449510
0.429800
0.415020
0.410100
0.410100
0.405170
0.405170
0.405170
0.410100
0.410100
0.410100
0.415020
0.419950
0.419950
0.424880
0.419950
0.424880
0.429800
0.429800
0.429800
0.434730
0.434730
0.429800
0.429800
0.429800
0.429800
0.429800
0.429800
0.429800
0.439660
0.454430
0.465520
0.475370
0.490150
0.514780
0.524630
0.519700
0.514780
0.504930
0.480300
0.454430
0.429800
0.419950
0.415020
0.410100
0.410100
0.415020
0.415020
0.419950
0.439660
0.495070
0.619460
0.810340
0.905170
0.784480
0.575120
0.444580
0.410100
0.415020
0.419950
0.419950
0.419950
0.419950
0.424880
0.429800
0.429800
0.439660
0.449510
0.449510
0.454430
0.465520
0.470440
0.480300
0.485220
0.490150
0.500000
0.509850
0.519700
0.529560
0.545570
0.560340
0.580050
0.599750
0.619460
0.645320
0.665020
0.679800
0.699510
0.704430
0.704430
0.689660
0.665020
0.635470
0.594830
0.550490
0.509850
0.470440
0.444580
0.424880
0.415020
0.405170
0.400250
0.400250
0.400250
0.400250
0.400250
0.400250
0.405170
0.410100
0.415020
0.415020
0.415020
0.419950
0.419950
0.419950
0.419950
0.419950
0.424880
0.424880
0.424880
0.419950
0.419950
0.419950
0.419950
0.419950
0.424880
0.429800
0.444580
0.460590
0.465520
0.490150
0.509850
0.519700
0.514780
0.504930
0.495070
0.470440
0.439660
0.415020
0.405170
0.400250
0.400250
0.400250
0.400250
0.400250
0.410100
0.424880
0.475370
0.594830
0.779560
0.869460
0.759850
0.560340
0.434730
0.405170
0.410100
0.415020
0.419950
0.419950
0.419950
0.424880
0.429800
0.429800
0.434730
0.439660
0.444580
0.449510
0.460590
0.465520
0.475370
0.480300
0.485220
0.495070
0.504930
0.514780
0.524630
0.539410
0.555420
0.570200
0.589900
0.609610
0.635470
0.655170
0.674880
0.689660
0.699510
0.699510
0.684730
0.660100
0.630540
0.589900
0.550490
0.509850
0.475370
0.449510
0.429800
0.415020
0.410100
0.405170
0.400250
0.400250
0.405170
0.405170
0.410100
0.410100
0.410100
0.415020
0.415020
0.419950
0.424880
0.429800
0.429800
0.429800
0.429800
0.434730
0.429800
0.429800
0.429800
0.429800
0.429800
0.429800
0.429800
0.429800
0.434730
0.449510
0.465520
0.475370
0.495070
0.519700
0.529560
0.524630
0.519700
0.504930
0.480300
0.454430
0.424880
0.415020
0.410100
0.405170
0.405170
0.405170
0.410100
0.410100
0.424880
0.465520
0.565270
0.735220
0.864530
0.789410
0.589900
0.444580
0.400250
0.410100
0.415020
0.415020
0.415020
0.419950
0.419950
0.424880
0.429800
0.429800
0.439660
0.444580
0.449510
0.454430
0.460590
0.465520
0.470440
0.480300
0.485220
0.490150
0.500000
0.509850
0.524630
0.539410
0.560340
0.580050
0.599750
0.619460
0.640390
0.660100
0.674880
0.679800
0.684730
0.674880
0.655170
0.630540
0.589900
0.555420
0.519700
0.485220
0.454430
0.434730
0.415020
0.410100
0.410100
0.405170
0.405170
0.400250
0.405170
0.410100
0.415020
0.415020
0.419950
0.424880
0.429800
0.434730
0.434730
0.434730
0.434730
0.434730
0.434730
0.434730
0.434730
0.434730
0.434730
0.434730
0.434730
0.434730
0.434730
0.439660
0.454430
0.475370
0.480300
0.495070
0.519700
0.534480
0.529560
0.519700
0.509850
0.490150
0.454430
0.429800
0.415020
0.410100
0.410100
0.410100
0.410100
0.410100
0.419950
0.429800
0.465520
0.565270
0.735220
0.854680
0.784480
0.589900
0.449510
0.415020
0.419950
0.424880
0.424880
0.424880
0.429800
0.429800
0.434730
0.434730
0.439660
0.449510
0.454430
0.460590
0.465520
0.475370
0.480300
0.480300
0.485220
0.495070
0.504930
0.514780
0.524630
0.539410
0.555420
0.570200
0.594830
0.619460
0.635470
0.655170
0.674880
0.689660
0.699510
0.704430
0.694580
0.674880
0.645320
0.604680
0.565270
0.524630
0.495070
0.465520
0.444580
0.434730
0.419950
0.415020
0.415020
0.415020
0.415020
0.419950
0.419950
0.419950
0.424880
0.429800
0.429800
0.434730
0.434730
0.439660
0.439660
0.439660
0.439660
0.439660
0.439660
0.439660
0.439660
0.434730
0.434730
0.434730
0.439660
0.434730
0.439660
0.454430
0.465520
0.480300
0.500000
0.519700
0.524630
0.519700
0.514780
0.500000
0.475370
0.444580
0.419950
0.415020
0.410100
0.410100
0.410100
0.410100
0.410100
0.419950
0.444580
0.504930
0.645320
0.834980
0.910100
0.759850
0.550490
0.429800
0.410100
0.410100
0.415020
0.419950
0.419950
0.419950
0.424880
0.429800
0.434730
0.434730
0.439660
0.449510
0.460590
0.465520
0.470440
0.475370
0.480300
0.485220
0.495070
0.504930
0.519700
0.529560
0.545570
0.555420
0.570200
0.594830
0.614530
0.635470
0.660100
0.679800
0.694580
0.704430
0.704430
0.689660
0.665020
0.630540
0.589900
0.545570
0.509850
0.475370
0.449510
0.434730
0.419950
0.415020
0.410100
0.410100
0.410100
0.410100
0.415020
0.415020
0.415020
0.419950
0.419950
0.424880
0.429800
0.429800
0.434730
0.434730
0.429800
0.429800
0.429800
0.434730
0.434730
0.434730
0.434730
0.434730
0.434730
0.434730
0.439660
0.449510
0.460590
0.470440
0.480300
0.509850
0.524630
0.529560
0.524630
0.514780
0.495070
0.470440
0.434730
0.415020
0.410100
0.405170
0.405170
0.405170
0.410100
0.410100
0.419950
0.454430
0.534480
0.694580
0.854680
0.869460
0.635470
0.475370
0.410100
0.410100
0.415020
0.415020
0.415020
0.419950
0.424880
0.429800
0.434730
0.434730
0.439660
0.449510
0.454430
0.460590
0.465520
0.470440
0.480300
0.485220
0.495070
0.500000
0.509850
0.519700
0.529560
0.545570
0.565270
0.584980
0.604680
0.630540
0.650250
0.665020
0.679800
0.694580
0.699510
0.694580
0.669950
0.645320
0.604680
0.570200
0.529560
0.495070
0.465520
0.444580
0.429800
0.419950
0.415020
0.410100
0.410100
0.410100
0.410100
0.415020
0.415020
0.415020
0.419950
0.419950
0.429800
0.434730
0.434730
0.434730
0.434730
0.434730
0.434730
0.434730
0.434730
0.439660
0.434730
0.434730
0.439660
0.439660
0.439660
0.449510
0.460590
0.480300
0.485220
0.509850
0.529560
0.539410
0.529560
0.524630
0.509850
0.485220
0.449510
0.424880
0.415020
0.410100
0.410100
0.410100
0.410100
0.410100
0.419950
0.434730
0.485220
0.609610
0.784480
0.869460
0.745070
0.545570
0.429800
0.410100
0.415020
0.419950
0.419950
0.424880
0.424880
0.429800
0.434730
0.434730
0.439660
0.449510
0.454430
0.460590
0.465520
0.470440
0.475370
0.480300
0.485220
0.495070
0.504930
0.514780
0.524630
0.539410
0.560340
0.575120
0.599750
0.619460
0.640390
0.660100
0.674880
0.689660
0.699510
0.699510
0.689660
0.665020
0.630540
0.594830
0.555420
0.514780
0.480300
0.460590
0.444580
0.434730
0.424880
0.419950
0.415020
0.410100
0.410100
0.415020
0.415020
0.419950
0.419950
0.424880
0.429800
0.434730
0.439660
0.439660
0.439660
0.439660
0.439660
0.439660
0.439660
0.439660
0.434730
0.434730
0.439660
0.434730
0.434730
0.444580
0.460590
0.475370
0.485220
0.500000
0.524630
0.539410
0.539410
0.529560
0.519700
0.500000
0.470440
0.444580
0.424880
0.415020
0.415020
0.415020
0.415020
0.419950
0.424880
0.434730
0.465520
0.550490
0.699510
0.844830
0.859610
0.635470
0.475370
0.410100
0.410100
0.415020
0.419950
0.419950
0.419950
0.429800
0.434730
0.434730
0.439660
0.444580
0.449510
0.454430
0.460590
0.465520
0.475370
0.480300
0.490150
0.500000
0.504930
0.519700
0.524630
0.539410
0.550490
0.565270
0.584980
0.609610
0.635470
0.655170
0.674880
0.689660
0.699510
0.704430
0.699510
0.679800
0.650250
0.619460
0.575120
0.539410
0.504930
0.475370
0.454430
0.434730
0.429800
0.419950
0.415020
0.415020
0.415020
0.415020
0.419950
0.419950
0.419950
0.424880
0.429800
0.429800
0.429800
0.434730
0.434730
0.439660
0.439660
0.439660
0.439660
0.434730
0.434730
0.434730
0.434730
0.434730
0.434730
0.439660
0.454430
0.465520
0.475370
0.480300
0.509850
0.524630
0.529560
0.519700
0.514780
0.495070
0.470440
0.434730
0.419950
0.415020
0.415020
0.410100
0.410100
0.415020
0.415020
0.429800
0.465520
0.560340
0.735220
0.905170
0.924880
0.684730
0.500000
0.424880
0.419950
0.419950
0.424880
0.424880
0.424880
0.429800
0.429800
0.434730
0.439660
0.449510
0.454430
0.460590
0.465520
0.465520
0.475370
0.480300
0.485220
0.495070
0.504930
0.519700
0.529560
0.545570
0.560340
0.570200
0.589900
0.619460
0.640390
0.665020
0.679800
0.699510
0.709360
0.715520
0.704430
0.684730
0.655170
0.619460
0.580050
0.539410
0.500000
0.470440
0.454430
0.439660
0.429800
0.419950
0.419950
0.419950
0.419950
0.419950
0.419950
0.424880
0.429800
0.429800
0.434730
0.434730
0.439660
0.439660
0.439660
0.439660
0.444580
0.444580
0.444580
0.439660
0.439660
0.439660
0.439660
0.439660
0.434730
0.439660
0.449510
0.465520
0.475370
0.490150
0.514780
0.529560
0.534480
0.529560
0.524630
0.509850
0.480300
0.449510
0.429800
0.419950
0.415020
0.410100
0.415020
0.415020
0.419950
0.434730
0.460590
0.534480
0.684730
0.849750
0.874380
0.669950
0.495070
0.419950
0.410100
0.419950
0.424880
0.429800
0.429800
0.429800
0.429800
0.434730
0.439660
0.449510
0.449510
0.454430
0.460590
0.465520
0.475370
0.480300
0.485220
0.495070
0.504930
0.514780
0.524630
0.534480
0.545570
0.560340
0.584980
0.604680
0.624380
0.650250
0.669950
0.684730
0.699510
0.704430
0.699510
0.679800
0.655170
0.619460
0.580050
0.539410
0.504930
0.470440
0.449510
0.434730
0.429800
0.419950
0.419950
0.415020
0.415020
0.419950
0.419950
0.424880
0.429800
0.429800
0.429800
0.434730
0.439660
0.439660
0.444580
0.444580
0.449510
0.444580
0.449510
0.449510
0.444580
0.439660
0.439660
0.439660
0.444580
0.449510
0.460590
0.470440
0.480300
0.495070
0.519700
0.539410
0.539410
0.534480
0.524630
0.500000
0.470440
0.444580
0.419950
0.415020
0.410100
0.410100
0.410100
0.415020
0.419950
0.429800
0.465520
0.550490
0.699510
0.849750
0.864530
0.640390
0.475370
0.415020
0.410100
0.419950
0.419950
0.419950
0.424880
0.429800
0.429800
0.434730
0.439660
0.449510
0.449510
0.454430
0.460590
0.465520
0.475370
0.480300
0.490150
0.500000
0.504930
0.514780
0.524630
0.539410
0.555420
0.570200
0.589900
0.609610
0.635470
0.655170
0.674880
0.684730
0.694580
0.699510
0.694580
0.674880
0.650250
0.609610
0.570200
0.534480
0.500000
0.470440
0.454430
0.439660
0.429800
0.419950
0.419950
0.419950
0.419950
0.419950
0.419950
0.419950
0.429800
0.434730
0.434730
0.439660
0.439660
0.439660
0.439660
0.444580
0.449510
0.449510
0.444580
0.444580
0.449510
0.449510
0.449510
0.449510
0.449510
0.449510
0.460590
0.480300
0.490150
0.504930
0.529560
0.545570
0.539410
0.534480
0.529560
0.509850
0.480300
0.449510
0.429800
0.424880
0.419950
0.419950
0.419950
0.419950
0.424880
0.434730
0.470440
0.550490
0.704430
0.859610
0.874380
0.645320
0.480300
0.419950
0.419950
0.429800
0.434730
0.434730
0.434730
0.439660
0.439660
0.449510
0.454430
0.454430
0.460590
0.465520
0.475370
0.480300
0.485220
0.495070
0.500000
0.509850
0.514780
0.524630
0.534480
0.545570
0.565270
0.580050
0.599750
0.619460
0.640390
0.665020
0.679800
0.699510
0.709360
0.715520
0.709360
0.689660
0.660100
0.619460
0.580050
0.545570
0.509850
0.480300
0.454430
0.434730
0.429800
0.419950
0.419950
0.419950
0.415020
0.415020
0.419950
0.419950
0.424880
0.429800
0.434730
0.434730
0.434730
0.439660
0.439660
0.439660
0.439660
0.439660
0.439660
0.439660
0.439660
0.439660
0.444580
0.439660
0.439660
0.449510
0.460590
0.475370
0.485220
0.500000
0.519700
0.529560
0.524630
0.524630
0.514780
0.495070
0.465520
0.434730
0.419950
0.419950
0.415020
0.415020
0.415020
0.415020
0.424880
0.444580
0.490150
0.614530
0.805420
0.924880
0.820200
0.599750
0.454430
0.415020
0.419950
0.424880
0.424880
0.424880
0.429800
0.434730
0.434730
0.434730
0.439660
0.444580
0.444580
0.454430
0.460590
0.465520
0.475370
0.480300
0.485220
0.495070
0.504930
0.519700
0.529560
0.539410
0.560340
0.580050
0.599750
0.624380
0.645320
0.669950
0.689660
0.704430
0.709360
0.715520
0.699510
0.669950
0.635470
0.599750
0.555420
0.514780
0.480300
0.460590
0.439660
0.429800
0.424880
0.419950
0.419950
0.419950
0.419950
0.419950
0.419950
0.419950
0.424880
0.429800
0.434730
0.434730
0.439660
0.439660
0.444580
0.439660
0.439660
0.439660
0.439660
0.439660
0.439660
0.439660
0.439660
0.439660
0.439660
0.449510
0.465520
0.475370
0.485220
0.504930
0.524630
0.529560
0.524630
0.519700
0.504930
0.480300
0.449510
0.424880
0.410100
0.405170
0.405170
0.400250
0.405170
0.405170
0.410100
0.429800
0.485220
0.609610
0.784480
0.859610
0.735220
0.534480
0.419950
0.400250
0.405170
0.410100
0.410100
0.410100
0.415020
0.415020
0.419950
0.424880
0.429800
0.434730
0.439660
0.439660
0.449510
0.454430
0.465520
0.465520
0.475370
0.480300
0.495070
0.500000
0.514780
0.529560
0.545570
0.565270
0.584980
0.604680
0.624380
0.645320
0.660100
0.674880
0.679800
0.679800
0.669950
0.645320
0.614530
0.575120
0.534480
0.500000
0.470440
0.444580
0.419950
0.410100
0.400250
0.395320
0.395320
0.395320
0.400250
0.400250
0.400250
0.400250
0.405170
0.410100
0.415020
0.415020
0.419950
0.419950
0.419950
0.419950
0.419950
0.419950
0.424880
0.424880
0.424880
0.424880
0.424880
0.424880
0.424880
0.434730
0.449510
0.460590
0.470440
0.490150
0.514780
0.524630
0.524630
0.519700
0.500000
0.475370
0.444580
0.415020
0.405170
0.400250
0.395320
0.395320
0.395320
0.395320
0.405170
0.424880
0.470440
0.580050
0.754930
0.849750
0.740150
0.539410
0.419950
0.390390
0.395320
0.400250
0.400250
0.400250
0.405170
0.405170
0.410100
0.410100
0.415020
0.419950
0.429800
0.434730
0.439660
0.449510
0.454430
0.465520
0.470440
0.475370
0.480300
0.495070
0.504930
0.519700
0.534480
0.550490
0.570200
0.589900
0.609610
0.635470
0.650250
0.665020
0.674880
0.669950
0.660100
0.635470
0.604680
0.570200
0.529560
0.495070
0.460590
0.434730
0.415020
0.410100
0.400250
0.390390
0.390390
0.390390
0.395320
0.395320
0.395320
0.400250
0.400250
0.405170
0.410100
0.410100
0.415020
0.415020
0.419950
0.419950
0.419950
0.419950
0.419950
0.419950
0.419950
0.419950
0.419950
0.419950
0.419950
0.424880
0.439660
0.454430
0.460590
0.480300
0.504930
0.519700
0.519700
0.509850
0.500000
0.475370
0.449510
0.415020
0.400250
0.395320
0.395320
0.395320
0.395320
0.395320
0.400250
0.415020
0.454430
0.550490
0.720440
0.849750
0.784480
0.589900
0.439660
0.395320
0.400250
0.410100
0.410100
0.410100
0.415020
0.419950
0.419950
0.424880
0.429800
0.434730
0.439660
0.449510
0.454430
0.460590
0.465520
0.470440
0.475370
0.480300
0.495070
0.500000
0.514780
0.524630
0.545570
0.560340
0.580050
0.599750
0.624380
0.645320
0.665020
0.679800
0.689660
0.694580
0.684730
0.665020
0.635470
0.594830
0.555420
0.514780
0.475370
0.449510
0.434730
0.419950
0.415020
0.405170
0.400250
0.400250
0.405170
0.410100
0.410100
0.410100
0.415020
0.415020
0.419950
0.419950
0.424880
0.429800
0.429800
0.429800
0.429800
0.429800
0.429800
0.429800
0.429800
0.429800
0.429800
0.429800
0.429800
0.434730
0.449510
0.465520
0.475370
0.485220
0.509850
0.519700
0.519700
0.514780
0.504930
0.485220
0.454430
0.429800
0.415020
0.410100
0.405170
0.405170
0.405170
0.410100
0.415020
0.434730
0.485220
0.604680
0.789410
0.905170
0.810340
0.594830
0.449510
0.405170
0.410100
0.410100
0.415020
0.415020
0.415020
0.419950
0.424880
0.429800
0.429800
0.434730
0.439660
0.449510
0.454430
0.465520
0.470440
0.480300
0.490150
0.495070
0.504930
0.519700
0.529560
0.539410
0.555420
0.570200
0.594830
0.619460
0.645320
0.665020
0.679800
0.694580
0.699510
0.704430
0.694580
0.669950
0.635470
0.594830
0.555420
0.514780
0.480300
0.454430
0.439660
0.424880
0.419950
0.415020
0.410100
0.410100
0.410100
0.415020
0.415020
0.419950
0.419950
0.429800
0.434730
0.434730
0.434730
0.434730
0.434730
0.434730
0.439660
0.439660
0.439660
0.434730
0.439660
0.439660
0.444580
0.439660
0.439660
0.439660
0.454430
0.470440
0.480300
0.490150
0.514780
0.529560
0.534480
0.524630
0.514780
0.495070
0.470440
0.439660
0.419950
0.415020
0.410100
0.410100
0.410100
0.410100
0.415020
0.424880
0.454430
0.534480
0.694580
0.854680
0.874380
0.650250
0.480300
0.410100
0.410100
0.419950
0.419950
0.419950
0.424880
0.429800
0.434730
0.439660
0.439660
0.449510
0.449510
0.454430
0.460590
0.465520
0.475370
0.480300
0.490150
0.500000
0.504930
0.514780
0.524630
0.534480
0.550490
0.565270
0.584980
0.609610
0.630540
0.650250
0.665020
0.679800
0.694580
0.699510
0.694580
0.674880
0.645320
0.609610
0.570200
0.529560
0.495070
0.465520
0.444580
0.429800
0.415020
0.410100
0.410100
0.410100
0.410100
0.415020
0.415020
0.415020
0.419950
0.419950
0.424880
0.429800
0.429800
0.434730
0.434730
0.439660
0.439660
0.439660
0.439660
0.439660
0.439660
0.444580
0.444580
0.439660
0.439660
0.444580
0.454430
0.470440
0.480300
0.490150
0.514780
0.539410
0.539410
0.534480
0.524630
0.509850
0.480300
0.444580
0.424880
0.415020
0.415020
0.410100
0.410100
0.410100
0.415020
0.424880
0.449510
0.514780
0.660100
0.830050
0.864530
0.679800
0.500000
0.419950
0.410100
0.415020
0.419950
0.424880
0.424880
0.429800
0.429800
0.434730
0.439660
0.439660
0.449510
0.449510
0.454430
0.460590
0.470440
0.480300
0.485220
0.490150
0.500000
0.504930
0.519700
0.529560
0.545570
0.565270
0.580050
0.604680
0.624380
0.645320
0.660100
0.674880
0.689660
0.699510
0.694580
0.674880
0.650250
0.614530
0.575120
0.539410
0.504930
0.475370
0.454430
0.434730
0.424880
0.419950
0.415020
0.415020
0.415020
0.415020
0.415020
0.419950
0.419950
0.424880
0.429800
0.429800
0.434730
0.439660
0.439660
0.444580
0.449510
0.449510
0.449510
0.439660
0.439660
0.444580
0.449510
0.444580
0.444580
0.444580
0.449510
0.465520
0.480300
0.485220
0.500000
0.529560
0.545570
0.539410
0.534480
0.519700
0.495070
0.470440
0.439660
0.429800
0.419950
0.419950
0.415020
0.415020
0.419950
0.424880
0.439660
0.475370
0.575120
0.740150
0.869460
0.805420
0.609610
0.460590
0.410100
0.415020
0.424880
0.424880
0.424880
0.429800
0.429800
0.434730
0.434730
0.439660
0.449510
0.454430
0.460590
0.465520
0.470440
0.475370
0.485220
0.490150
0.500000
0.504930
0.514780
0.524630
0.539410
0.555420
0.570200
0.589900
0.609610
0.635470
0.655170
0.674880
0.689660
0.699510
0.704430
0.699510
0.674880
0.645320
0.604680
0.560340
0.519700
0.485220
0.460590
0.439660
0.429800
0.415020
0.410100
0.410100
0.405170
0.405170
0.405170
0.410100
0.410100
0.415020
0.415020
0.415020
0.419950
0.419950
0.419950
0.429800
0.429800
0.434730
0.434730
0.434730
0.434730
0.429800
0.429800
0.429800
0.429800
0.429800
0.429800
0.434730
0.449510
0.465520
0.470440
0.490150
0.514780
0.529560
0.519700
0.519700
0.504930
0.485220
0.454430
0.424880
0.410100
0.405170
0.405170
0.405170
0.405170
0.410100
0.415020
0.434730
0.485220
0.609610
0.795570
0.890390
0.774630
0.570200
0.439660
0.405170
0.410100
0.415020
0.415020
0.415020
0.419950
0.419950
0.424880
0.429800
0.434730
0.439660
0.439660
0.449510
0.460590
0.465520
0.475370
0.480300
0.485220
0.495070
0.504930
0.514780
0.524630
0.539410
0.555420
0.570200
0.589900
0.614530
0.635470
0.655170
0.674880
0.684730
0.694580
0.699510
0.684730
0.660100
0.624380
0.584980
0.545570
0.504930
0.475370
0.449510
0.434730
0.419950
0.415020
0.410100
0.400250
0.400250
0.405170
0.410100
0.415020
0.415020
0.415020
0.424880
0.429800
0.429800
0.429800
0.434730
0.434730
0.434730
0.429800
0.429800
0.429800
0.429800
0.429800
0.434730
0.429800
0.429800
0.429800
0.434730
0.444580
0.454430
0.465520
0.480300
0.500000
0.519700
0.529560
0.524630
0.519700
0.504930
0.485220
0.454430
0.429800
0.419950
0.410100
0.410100
0.410100
0.410100
0.410100
0.419950
0.434730
0.490150
0.619460
0.800490
0.869460
0.735220
0.534480
0.424880
0.400250
0.410100
0.415020
0.419950
0.419950
0.424880
0.429800
0.429800
0.434730
0.434730
0.439660
0.449510
0.454430
0.460590
0.465520
0.470440
0.480300
0.485220
0.495070
0.504930
0.514780
0.519700
0.534480
0.555420
0.570200
0.589900
0.614530
0.635470
0.655170
0.669950
0.684730
0.694580
0.694580
0.674880
0.650250
0.619460
0.580050
0.539410
0.509850
0.475370
0.449510
0.434730
0.419950
0.415020
0.410100
0.410100
0.410100
0.410100
0.415020
0.415020
0.415020
0.419950
0.424880
0.424880
0.429800
0.429800
0.429800
0.429800
0.429800
0.434730
0.434730
0.434730
0.434730
0.434730
0.434730
0.429800
0.429800
0.434730
0.434730
0.444580
0.460590
0.475370
0.480300
0.504930
0.519700
0.524630
0.519700
0.514780
0.495070
0.465520
0.434730
0.415020
0.410100
0.400250
0.400250
0.400250
0.405170
0.410100
0.415020
0.444580
0.504930
0.645320
0.815270
0.859610
0.689660
0.504930
0.415020
0.405170
0.410100
0.415020
0.415020
0.415020
0.419950
0.424880
0.429800
0.429800
0.434730
0.434730
0.439660
0.449510
0.454430
0.460590
0.470440
0.480300
0.490150
0.500000
0.509850
0.519700
0.529560
0.539410
0.555420
0.570200
0.589900
0.614530
0.635470
0.655170
0.674880
0.684730
0.689660
0.694580
0.674880
0.645320
0.609610
0.570200
0.534480
0.500000
0.470440
0.449510
0.429800
0.415020
0.410100
0.405170
0.405170
0.400250
0.405170
0.410100
0.410100
0.415020
0.415020
0.419950
0.419950
0.424880
0.424880
0.424880
0.429800
0.429800
0.429800
0.429800
0.434730
0.434730
0.434730
0.434730
0.434730
0.434730
0.434730
0.439660
0.449510
0.465520
0.475370
0.490150
0.514780
0.529560
0.524630
0.519700
0.504930
0.485220
0.460590
0.429800
0.415020
0.410100
0.400250
0.400250
0.400250
0.405170
0.410100
0.424880
0.460590
0.560340
0.735220
0.869460
0.805420
0.604680
0.449510
0.400250
0.405170
0.415020
0.415020
0.419950
0.419950
0.424880
0.429800
0.434730
0.434730
0.439660
0.444580
0.454430
0.460590
0.465520
0.465520
0.475370
0.485220
0.495070
0.504930
0.514780
0.524630
0.534480
0.550490
0.570200
0.589900
0.614530
0.635470
0.655170
0.674880
0.689660
0.704430
0.709360
0.699510
0.674880
0.645320
0.599750
0.560340
0.519700
0.485220
0.454430
0.434730
0.419950
0.410100
0.405170
0.405170
0.405170
0.405170
0.405170
0.410100
0.410100
0.415020
0.415020
0.419950
0.424880
0.424880
0.429800
0.429800
0.429800
0.434730
0.434730
0.434730
0.434730
0.434730
0.429800
0.429800
0.429800
0.429800
0.429800
0.439660
0.454430
0.465520
0.475370
0.500000
0.519700
0.519700
0.514780
0.504930
0.490150
0.460590
0.434730
0.415020
0.410100
0.405170
0.405170
0.405170
0.405170
0.410100
0.415020
0.444580
0.524630
0.674880
0.849750
0.885470
0.679800
0.495070
0.415020
0.405170
0.415020
0.415020
0.415020
0.415020
0.419950
0.424880
0.429800
0.434730
0.434730
0.439660
0.444580
0.454430
0.460590
0.465520
0.475370
0.480300
0.490150
0.495070
0.504930
0.519700
0.524630
0.539410
0.560340
0.580050
0.599750
0.624380
0.645320
0.665020
0.679800
0.699510
0.704430
0.694580
0.674880
0.650250
0.614530
0.575120
0.534480
0.500000
0.470440
0.449510
0.429800
0.419950
0.415020
0.410100
0.410100
0.410100
0.410100
0.415020
0.415020
0.419950
0.419950
0.424880
0.429800
0.429800
0.434730
0.434730
0.434730
0.439660
0.439660
0.439660
0.439660
0.439660
0.434730
0.434730
0.434730
0.434730
0.439660
0.439660
0.449510
0.465520
0.475370
0.490150
0.514780
0.529560
0.529560
0.524630
0.514780
0.495070
0.465520
0.434730
0.419950
0.410100
0.410100
0.410100
0.415020
0.415020
0.419950
0.429800
0.465520
0.550490
0.715520
0.859610
0.869460
0.630540
0.470440
0.405170
0.410100
0.415020
0.419950
0.419950
0.424880
0.429800
0.434730
0.434730
0.434730
0.439660
0.444580
0.449510
0.454430
0.460590
0.465520
0.475370
0.480300
0.485220
0.495070
0.504930
0.519700
0.529560
0.545570
0.560340
0.580050
0.599750
0.624380
0.645320
0.665020
0.674880
0.684730
0.689660
0.684730
0.665020
0.635470
0.599750
0.560340
0.519700
0.490150
0.460590
0.434730
0.419950
0.415020
0.410100
0.410100
0.410100
0.410100
0.410100
0.410100
0.415020
0.415020
0.419950
0.419950
0.424880
0.429800
0.429800
0.429800
0.429800
0.434730
0.434730
0.434730
0.434730
0.434730
0.434730
0.434730
0.434730
0.434730
0.434730
0.439660
0.454430
0.465520
0.475370
0.490150
0.519700
0.529560
0.529560
0.524630
0.514780
0.490150
0.460590
0.434730
0.419950
0.410100
0.410100
0.410100
0.410100
0.410100
0.415020
0.429800
0.465520
0.565270
0.740150
0.864530
0.789410
0.589900
0.444580
0.400250
0.410100
0.415020
0.415020
0.419950
0.419950
0.424880
0.429800
0.434730
0.434730
0.439660
0.449510
0.454430
0.460590
0.460590
0.465520
0.475370
0.480300
0.490150
0.500000
0.504930
0.519700
0.534480
0.545570
0.565270
0.584980
0.604680
0.630540
0.645320
0.660100
0.674880
0.684730
0.689660
0.679800
0.660100
0.630540
0.589900
0.545570
0.514780
0.480300
0.454430
0.429800
0.415020
0.410100
0.400250
0.400250
0.400250
0.395320
0.400250
0.400250
0.405170
0.410100
0.415020
0.415020
0.419950
0.419950
0.424880
0.429800
0.429800
0.434730
0.434730
0.429800
0.429800
0.429800
0.434730
0.429800
0.429800
0.429800
0.429800
0.434730
0.449510
0.460590
0.475370
0.490150
0.514780
0.524630
0.514780
0.509850
0.500000
0.475370
0.449510
0.424880
0.410100
0.405170
0.400250
0.400250
0.400250
0.405170
0.410100
0.429800
0.470440
0.580050
0.759850
0.880540
0.795570
0.589900
0.444580
0.400250
0.405170
0.410100
0.415020
0.415020
0.415020
0.419950
0.424880
0.429800
0.429800
0.434730
0.439660
0.449510
0.460590
0.465520
0.465520
0.475370
0.480300
0.490150
0.500000
0.504930
0.519700
0.534480
0.545570
0.565270
0.584980
0.609610
0.635470
0.660100
0.674880
0.689660
0.699510
0.704430
0.694580
0.669950
0.635470
0.594830
0.550490
0.509850
0.475370
0.449510
0.434730
0.419950
0.410100
0.405170
0.400250
0.400250
0.405170
0.405170
0.410100
0.410100
0.415020
0.415020
0.419950
0.419950
0.419950
0.424880
0.429800
0.429800
0.434730
0.434730
0.434730
0.429800
0.429800
0.429800
0.429800
0.429800
0.429800
0.434730
0.444580
0.460590
0.465520
0.475370
0.495070
0.519700
0.524630
0.519700
0.509850
0.495070
0.470440
0.444580
0.419950
0.410100
0.410100
0.405170
0.410100
0.410100
0.415020
0.424880
0.449510
0.514780
0.655170
0.834980
0.885470
0.715520
0.519700
0.419950
0.410100
0.415020
0.419950
0.424880
0.429800
0.429800
0.434730
0.434730
0.439660
0.444580
0.454430
0.460590
0.465520
0.465520
0.475370
0.480300
0.485220
0.495070
0.500000
0.514780
0.524630
0.539410
0.550490
0.565270
0.584980
0.604680
0.630540
0.650250
0.669950
0.684730
0.699510
0.704430
0.699510
0.684730
0.660100
0.624380
0.584980
0.545570
0.509850
0.480300
0.454430
0.439660
0.429800
0.419950
0.419950
0.419950
0.415020
0.415020
0.419950
0.419950
0.424880
0.429800
0.434730
0.439660
0.439660
0.444580
0.449510
0.449510
0.449510
0.449510
0.449510
0.449510
0.449510
0.449510
0.449510
0.449510
0.449510
0.449510
0.449510
0.460590
0.475370
0.485220
0.495070
0.514780
0.534480
0.539410
0.529560
0.524630
0.509850
0.485220
0.454430
0.434730
0.424880
0.419950
0.415020
0.415020
0.415020
0.415020
0.419950
0.444580
0.495070
0.619460
0.795570
0.874380
0.750000
0.545570
0.434730
0.410100
0.419950
0.424880
0.429800
0.429800
0.429800
0.429800
0.434730
0.434730
0.439660
0.449510
0.454430
0.460590
0.465520
0.475370
0.480300
0.490150
0.500000
0.504930
0.514780
0.524630
0.534480
0.545570
0.560340
0.575120
0.594830
0.619460
0.635470
0.660100
0.674880
0.694580
0.699510
0.699510
0.684730
0.660100
0.630540
0.589900
0.555420
0.514780
0.480300
0.460590
0.444580
0.429800
0.419950
0.415020
0.410100
0.410100
0.410100
0.415020
0.415020
0.419950
0.419950
0.419950
0.429800
0.429800
0.429800
0.434730
0.439660
0.434730
0.434730
0.439660
0.439660
0.434730
0.434730
0.434730
0.434730
0.434730
0.434730
0.439660
0.449510
0.460590
0.475370
0.485220
0.509850
0.524630
0.529560
0.524630
0.519700
0.500000
0.475370
0.449510
0.429800
0.419950
0.415020
0.415020
0.410100
0.410100
0.415020
0.424880
0.444580
0.504930
0.630540
0.800490
0.854680
0.715520
0.524630
0.419950
0.410100
0.419950
0.419950
0.419950
0.419950
0.424880
0.429800
0.434730
0.439660
0.439660
0.449510
0.449510
0.454430
0.465520
0.475370
0.480300
0.485220
0.495070
0.504930
0.509850
0.519700
0.529560
0.545570
0.565270
0.580050
0.599750
0.624380
0.645320
0.665020
0.679800
0.689660
0.694580
0.699510
0.679800
0.655170
0.624380
0.584980
0.545570
0.509850
0.480300
0.454430
0.439660
0.424880
0.415020
0.415020
0.415020
0.415020
0.415020
0.415020
0.419950
0.419950
0.424880
0.429800
0.429800
0.429800
0.434730
0.439660
0.439660
0.439660
0.439660
0.439660
0.439660
0.439660
0.439660
0.439660
0.439660
0.439660
0.439660
0.444580
0.449510
0.460590
0.470440
0.480300
0.495070
0.519700
0.529560
0.524630
0.524630
0.514780
0.495070
0.465520
0.434730
0.424880
0.419950
0.415020
0.415020
0.419950
0.419950
0.429800
0.444580
0.495070
0.614530
0.805420
0.910100
0.800490
0.594830
0.460590
0.415020
0.419950
0.424880
0.424880
0.424880
0.429800
0.434730
0.434730
0.434730
0.439660
0.449510
0.454430
0.460590
0.465520
0.470440
0.480300
0.485220
0.495070
0.504930
0.514780
0.519700
0.529560
0.545570
0.565270
0.580050
0.604680
0.630540
0.650250
0.674880
0.694580
0.709360
0.720440
0.720440
0.709360
0.684730
0.645320
0.604680
0.565270
0.519700
0.485220
0.460590
0.439660
0.424880
0.415020
0.410100
0.410100
0.410100
0.410100
0.415020
0.415020
0.419950
0.419950
0.424880
0.429800
0.434730
0.434730
0.439660
0.439660
0.439660
0.439660
0.439660
0.439660
0.439660
0.439660
0.439660
0.439660
0.439660
0.439660
0.444580
0.449510
0.460590
0.475370
0.480300
0.495070
0.519700
0.529560
0.534480
0.524630
0.519700
0.500000
0.470440
0.444580
0.429800
0.419950
0.415020
0.415020
0.415020
0.415020
0.424880
0.434730
0.475370
0.580050
0.754930
0.885470
0.810340
0.609610
0.460590
0.410100
0.415020
0.419950
0.419950
0.424880
0.424880
0.429800
0.434730
0.439660
0.439660
0.449510
0.454430
0.465520
0.470440
0.475370
0.480300
0.485220
0.490150
0.500000
0.509850
0.519700
0.529560
0.545570
0.560340
0.575120
0.594830
0.619460
0.640390
0.665020
0.679800
0.694580
0.699510
0.704430
0.694580
0.674880
0.645320
0.609610
0.570200
0.534480
0.500000
0.470440
0.449510
0.434730
0.424880
0.419950
0.419950
0.419950
0.419950
0.419950
0.419950
0.424880
0.429800
0.429800
0.434730
0.434730
0.434730
0.439660
0.439660
0.444580
0.444580
0.444580
0.444580
0.444580
0.444580
0.444580
0.444580
0.449510
0.449510
0.449510
0.449510
0.460590
0.475370
0.480300
0.490150
0.514780
0.534480
0.539410
0.529560
0.524630
0.504930
0.480300
0.449510
0.429800
0.419950
0.415020
0.415020
0.415020
0.419950
0.419950
0.434730
0.454430
0.514780
0.655170
0.834980
0.880540
0.709360
0.519700
0.424880
0.415020
0.419950
0.424880
0.424880
0.424880
0.429800
0.429800
0.434730
0.434730
0.439660
0.449510
0.454430
0.460590
0.460590
0.465520
0.480300
0.485220
0.495070
0.504930
0.514780
0.519700
0.534480
0.545570
0.565270
0.584980
0.604680
0.630540
0.650250
0.665020
0.679800
0.694580
0.699510
0.704430
0.684730
0.660100
0.624380
0.584980
0.539410
0.504930
0.475370
0.454430
0.434730
0.419950
0.415020
0.415020
0.410100
0.410100
0.410100
0.415020
0.415020
0.419950
0.419950
0.429800
0.429800
0.429800
0.429800
0.434730
0.434730
0.434730
0.434730
0.434730
0.434730
0.434730
0.434730
0.434730
0.434730
0.434730
0.434730
0.434730
0.444580
0.460590
0.475370
0.480300
0.504930
0.524630
0.529560
0.524630
0.514780
0.500000
0.475370
0.449510
0.424880
0.415020
0.410100
0.405170
0.405170
0.410100
0.410100
0.419950
0.444580
0.500000
0.630540
0.800490
0.854680
0.715520
0.524630
0.424880
0.405170
0.410100
0.415020
0.415020
0.419950
0.419950
0.424880
0.429800
0.434730
0.434730
0.444580
0.449510
0.454430
0.460590
0.465520
0.470440
0.475370
0.485220
0.495070
0.500000
0.514780
0.519700
0.534480
0.550490
0.565270
0.589900
0.609610
0.630540
0.655170
0.669950
0.684730
0.694580
0.699510
0.684730
0.660100
0.624380
0.584980
0.545570
0.514780
0.480300
0.454430
0.434730
0.429800
0.419950
0.415020
0.415020
0.415020
0.415020
0.415020
0.415020
0.419950
0.419950
0.419950
0.429800
0.434730
0.434730
0.434730
0.434730
0.434730
0.434730
0.434730
0.434730
0.434730
0.429800
0.429800
0.429800
0.429800
0.429800
0.429800
0.444580
0.454430
0.470440
0.480300
0.495070
0.514780
0.519700
0.514780
0.504930
0.495070
0.470440
0.434730
0.415020
0.410100
0.400250
0.400250
0.400250
0.400250
0.405170
0.415020
0.434730
0.504930
0.650250
0.844830
0.895320
0.735220
0.529560
0.419950
0.400250
0.405170
0.410100
0.410100
0.410100
0.415020
0.419950
0.424880
0.429800
0.434730
0.439660
0.449510
0.454430
0.460590
0.465520
0.475370
0.480300
0.485220
0.495070
0.504930
0.514780
0.529560
0.545570
0.560340
0.580050
0.599750
0.624380
0.645320
0.669950
0.684730
0.694580
0.699510
0.704430
0.684730
0.655170
0.619460
0.580050
0.539410
0.500000
0.470440
0.449510
0.429800
0.415020
0.410100
0.405170
0.400250
0.400250
0.405170
0.410100
0.410100
0.415020
0.419950
0.419950
0.424880
0.429800
0.434730
0.434730
0.434730
0.434730
0.439660
0.434730
0.434730
0.434730
0.429800
0.429800
0.429800
0.429800
0.429800
0.429800
0.439660
0.454430
0.465520
0.475370
0.500000
0.519700
0.529560
0.519700
0.514780
0.500000
0.475370
0.444580
0.419950
0.410100
0.400250
0.400250
0.400250
0.400250
0.405170
0.415020
0.434730
0.495070
0.624380
0.805420
0.864530
0.725370
0.524630
0.419950
0.400250
0.415020
0.415020
0.415020
0.419950
0.419950
0.419950
0.424880
0.429800
0.434730
0.439660
0.449510
0.454430
0.460590
0.465520
0.470440
0.475370
0.485220
0.490150
0.500000
0.509850
0.524630
0.539410
0.555420
0.570200
0.594830
0.619460
0.640390
0.660100
0.674880
0.684730
0.694580
0.699510
0.684730
0.660100
0.624380
0.584980
0.545570
0.509850
0.480300
0.454430
0.434730
0.424880
0.415020
0.410100
0.410100
0.410100
0.410100
0.410100
0.415020
0.415020
0.419950
0.424880
0.429800
0.429800
0.434730
0.434730
0.434730
0.434730
0.434730
0.434730
0.434730
0.434730
0.434730
0.434730
0.434730
0.434730
0.434730
0.434730
0.444580
0.460590
0.470440
0.480300
0.500000
0.524630
0.529560
0.524630
0.514780
0.500000
0.475370
0.444580
0.419950
0.415020
0.410100
0.410100
0.410100
0.410100
0.410100
0.419950
0.439660
0.495070
0.624380
0.800490
0.864530
0.725370
0.529560
0.424880
0.410100
0.415020
0.419950
0.419950
0.424880
0.424880
0.429800
0.429800
0.434730
0.439660
0.444580
0.449510
0.454430
0.460590
0.470440
0.475370
0.480300
0.490150
0.500000
0.509850
0.519700
0.529560
0.545570
0.555420
0.575120
0.599750
0.619460
0.640390
0.660100
0.674880
0.689660
0.699510
0.694580
0.684730
0.660100
0.630540
0.589900
0.555420
0.514780
0.485220
0.460590
0.439660
0.429800
0.424880
0.419950
0.415020
0.415020
0.415020
0.415020
0.419950
0.419950
0.424880
0.429800
0.434730
0.434730
0.439660
0.439660
0.439660
0.439660
0.444580
0.444580
0.439660
0.439660
0.444580
0.444580
0.444580
0.444580
0.444580
0.444580
0.449510
0.460590
0.475370
0.480300
0.500000
0.519700
0.529560
0.529560
0.524630
0.514780
0.490150
0.460590
0.434730
0.424880
0.419950
0.415020
0.415020
0.415020
0.415020
0.419950
0.434730
0.475370
0.575120
0.745070
0.859610
0.779560
0.584980
0.444580
0.410100
0.415020
0.419950
0.415020
0.415020
0.415020
0.419950
0.429800
0.434730
0.439660
0.444580
0.449510
0.454430
0.465520
0.470440
0.475370
0.480300
0.485220
0.495070
0.500000
0.514780
0.524630
0.539410
0.555420
0.570200
0.589900
0.609610
0.630540
0.650250
0.669950
0.684730
0.694580
0.699510
0.689660
0.669950
0.645320
0.604680
0.565270
0.524630
0.490150
0.460590
0.439660
0.429800
0.419950
0.415020
0.410100
0.410100
0.410100
0.410100
0.415020
0.419950
0.419950
0.419950
0.424880
0.429800
0.429800
0.434730
0.434730
0.434730
0.434730
0.434730
0.429800
0.429800
0.429800
0.424880
0.424880
0.424880
0.424880
0.424880
0.424880
0.434730
0.454430
0.465520
0.475370
0.495070
0.514780
0.509850
0.504930
0.504930
0.490150
0.460590
0.429800
0.415020
0.410100
0.400250
0.400250
0.400250
0.400250
0.410100
0.419950
0.454430
0.539410
0.709360
0.890390
0.915020
0.689660
0.500000
0.415020
0.405170
0.410100
0.410100
0.410100
0.415020
0.415020
0.419950
0.429800
0.434730
0.434730
0.444580
0.454430
0.460590
0.465520
0.475370
0.480300
0.485220
0.495070
0.500000
0.514780
0.519700
0.534480
0.550490
0.565270
0.584980
0.609610
0.630540
0.655170
0.674880
0.694580
0.704430
0.715520
0.709360
0.689660
0.665020
0.624380
0.584980
0.545570
0.509850
0.475370
0.454430
0.439660
0.424880
0.419950
0.419950
0.419950
0.419950
0.419950
0.424880
0.429800
0.429800
0.434730
0.434730
0.439660
0.439660
0.439660
0.439660
0.444580
0.449510
0.444580
0.449510
0.449510
0.444580
0.439660
0.439660
0.439660
0.439660
0.439660
0.444580
0.454430
0.470440
0.480300
0.490150
0.514780
0.534480
0.539410
0.529560
0.524630
0.509850
0.480300
0.449510
0.429800
0.424880
0.419950
0.415020
0.415020
0.415020
0.415020
0.429800
0.449510
0.514780
0.655170
0.834980
0.880540
0.709360
0.524630
0.424880
0.415020
0.419950
0.419950
0.424880
0.424880
0.429800
0.434730
0.439660
0.444580
0.449510
0.454430
0.454430
0.465520
0.470440
0.475370
0.480300
0.490150
0.495070
0.500000
0.509850
0.519700
0.529560
0.545570
0.560340
0.580050
0.604680
0.624380
0.650250
0.669950
0.684730
0.699510
0.704430
0.704430
0.689660
0.665020
0.630540
0.589900
0.555420
0.514780
0.480300
0.454430
0.439660
0.429800
0.419950
0.419950
0.419950
0.419950
0.419950
0.419950
0.424880
0.424880
0.429800
0.429800
0.429800
0.434730
0.439660
0.439660
0.444580
0.449510
0.449510
0.444580
0.444580
0.439660
0.439660
0.439660
0.439660
0.444580
0.444580
0.444580
0.454430
0.470440
0.480300
0.490150
0.509850
0.529560
0.539410
0.529560
0.524630
0.514780
0.490150
0.460590
0.434730
0.419950
0.415020
0.415020
0.415020
0.415020
0.415020
0.424880
0.434730
0.480300
0.584980
0.764780
0.874380
0.784480
0.584980
0.449510
0.410100
0.415020
0.419950
0.424880
0.424880
0.429800
0.429800
0.429800
0.434730
0.439660
0.444580
0.449510
0.454430
0.460590
0.475370
0.480300
0.485220
0.495070
0.500000
0.509850
0.514780
0.524630
0.539410
0.555420
0.570200
0.589900
0.609610
0.630540
0.650250
0.669950
0.684730
0.694580
0.699510
0.684730
0.665020
0.635470
0.599750
0.560340
0.524630
0.490150
0.460590
0.444580
0.429800
0.419950
0.415020
0.415020
0.410100
0.410100
0.410100
0.410100
0.415020
0.415020
0.419950
0.424880
0.429800
0.434730
0.434730
0.434730
0.439660
0.439660
0.444580
0.439660
0.439660
0.439660
0.439660
0.439660
0.439660
0.439660
0.439660
0.444580
0.460590
0.475370
0.480300
0.500000
0.524630
0.534480
0.524630
0.519700
0.504930
0.480300
0.454430
0.429800
0.415020
0.410100
0.410100
0.410100
0.410100
0.415020
0.419950
0.434730
0.475370
0.584980
0.754930
0.859610
0.764780
0.565270
0.439660
0.405170
0.410100
0.415020
0.415020
0.415020
0.415020
0.419950
0.429800
0.434730
0.439660
0.444580
0.449510
0.454430
0.460590
0.465520
0.475370
0.485220
0.490150
0.500000
0.504930
0.514780
0.524630
0.539410
0.555420
0.570200
0.589900
0.609610
0.630540
0.650250
0.669950
0.684730
0.699510
0.704430
0.694580
0.669950
0.645320
0.604680
0.565270
0.524630
0.490150
0.460590
0.444580
0.429800
0.419950
0.419950
0.415020
0.415020
0.415020
0.415020
0.419950
0.419950
0.424880
0.429800
0.429800
0.429800
0.434730
0.439660
0.439660
0.434730
0.439660
0.439660
0.434730
0.434730
0.439660
0.439660
0.439660
0.439660
0.439660
0.439660
0.444580
0.454430
0.470440
0.480300
0.495070
0.514780
0.519700
0.519700
0.514780
0.504930
0.480300
0.454430
0.424880
0.410100
0.405170
0.400250
0.405170
0.405170
0.410100
0.415020
0.434730
0.490150
0.609610
0.805420
0.915020
0.805420
0.594830
0.449510
0.410100
0.410100
0.415020
0.410100
0.410100
0.415020
0.415020
0.419950
0.429800
0.434730
0.439660
0.449510
0.454430
0.460590
0.465520
0.475370
0.480300
0.485220
0.495070
0.500000
0.509850
0.519700
0.534480
0.550490
0.570200
0.589900
0.609610
0.635470
0.655170
0.674880
0.689660
0.699510
0.699510
0.689660
0.669950
0.635470
0.599750
0.555420
0.514780
0.480300
0.454430
0.439660
0.424880
0.415020
0.410100
0.405170
0.405170
0.410100
0.410100
0.415020
0.419950
0.419950
0.424880
0.429800
0.429800
0.429800
0.434730
0.439660
0.439660
0.439660
0.439660
0.439660
0.439660
0.434730
0.434730
0.434730
0.429800
0.434730
0.434730
0.439660
0.449510
0.460590
0.475370
0.485220
0.509850
0.524630
0.529560
0.519700
0.514780
0.495070
0.470440
0.434730
0.419950
0.410100
0.410100
0.410100
0.410100
0.410100
0.415020
0.424880
0.454430
0.534480
0.694580
0.849750
0.864530
0.640390
0.475370
0.410100
0.405170
0.415020
0.415020
0.415020
0.415020
0.419950
0.424880
0.429800
0.434730
0.439660
0.444580
0.449510
0.454430
0.465520
0.475370
0.480300
0.485220
0.495070
0.500000
0.514780
0.519700
0.529560
0.545570
0.560340
0.580050
0.599750
0.624380
0.645320
0.665020
0.679800
0.689660
0.694580
0.694580
0.674880
0.645320
0.609610
0.570200
0.529560
0.495070
0.460590
0.444580
0.429800
0.419950
0.415020
0.410100
0.410100
0.410100
0.410100
0.410100
0.415020
0.415020
0.419950
0.424880
0.429800
0.429800
0.434730
0.434730
0.434730
0.434730
0.434730
0.439660
0.439660
0.434730
0.434730
0.434730
0.434730
0.434730
0.434730
0.434730
0.449510
0.460590
0.475370
0.480300
0.500000
0.524630
0.534480
0.529560
0.524630
0.509850
0.485220
0.454430
0.429800
0.415020
0.410100
0.410100
0.410100
0.410100
0.415020
0.419950
0.434730
0.485220
0.604680
0.784480
0.869460
0.745070
0.539410
0.424880
0.400250
0.410100
0.415020
0.415020
0.419950
0.419950
0.419950
0.424880
0.429800
0.429800
0.439660
0.444580
0.449510
0.454430
0.465520
0.470440
0.480300
0.485220
0.495070
0.504930
0.509850
0.519700
0.534480
0.550490
0.565270
0.584980
0.604680
0.630540
0.650250
0.665020
0.679800
0.689660
0.694580
0.679800
0.655170
0.624380
0.584980
0.550490
0.514780
0.480300
0.454430
0.434730
0.419950
0.415020
0.410100
0.410100
0.410100
0.410100
0.410100
0.410100
0.415020
0.419950
0.424880
0.429800
0.429800
0.429800
0.434730
0.434730
0.434730
0.434730
0.434730
0.434730
0.434730
0.434730
0.434730
0.434730
0.434730
0.434730
0.434730
0.434730
0.449510
0.460590
0.470440
0.485220
0.514780
0.524630
0.524630
0.519700
0.509850
0.490150
0.460590
0.429800
0.419950
0.410100
0.405170
0.405170
0.410100
0.410100
0.415020
0.429800
0.460590
0.550490
0.715520
0.859610
0.869460
0.619460
0.465520
0.405170
0.410100
0.415020
0.419950
0.419950
0.419950
0.419950
0.429800
0.429800
0.434730
0.444580
0.449510
0.454430
0.460590
0.465520
0.475370
0.480300
0.490150
0.495070
0.504930
0.514780
0.524630
0.539410
0.555420
0.570200
0.589900
0.609610
0.635470
0.655170
0.674880
0.694580
0.699510
0.704430
0.699510
0.679800
0.650250
0.609610
0.570200
0.529560
0.495070
0.460590
0.439660
0.429800
0.419950
0.410100
0.410100
0.410100
0.410100
0.410100
0.415020
0.415020
0.419950
0.419950
0.424880
0.429800
0.434730
0.434730
0.434730
0.434730
0.434730
0.434730
0.434730
0.434730
0.429800
0.429800
0.429800
0.429800
0.429800
0.429800
0.434730
0.449510
0.460590
0.475370
0.485220
0.509850
0.524630
0.524630
0.519700
0.514780
0.495070
0.465520
0.434730
0.415020
0.410100
0.410100
0.405170
0.405170
0.405170
0.415020
0.429800
0.465520
0.570200
0.750000
0.890390
0.830050
0.624380
0.465520
0.405170
0.400250
0.410100
0.415020
0.415020
0.415020
0.419950
0.424880
0.429800
0.434730
0.439660
0.444580
0.449510
0.460590
0.465520
0.475370
0.480300
0.485220
0.495070
0.500000
0.514780
0.524630
0.534480
0.545570
0.560340
0.584980
0.604680
0.624380
0.650250
0.669950
0.684730
0.694580
0.699510
0.694580
0.669950
0.640390
0.599750
0.555420
0.514780
0.480300
0.454430
0.434730
0.415020
0.410100
0.400250
0.400250
0.395320
0.395320
0.400250
0.400250
0.405170
0.410100
0.415020
0.419950
0.424880
0.429800
0.429800
0.429800
0.434730
0.429800
0.429800
0.429800
0.429800
0.429800
0.429800
0.434730
0.434730
0.429800
0.429800
0.434730
0.444580
0.460590
0.465520
0.480300
0.500000
0.519700
0.524630
0.519700
0.514780
0.495070
0.470440
0.434730
0.419950
0.410100
0.405170
0.405170
0.405170
0.405170
0.405170
0.415020
0.444580
0.514780
0.660100
0.834980
0.869460
0.674880
0.495070
0.415020
0.405170
0.415020
0.415020
0.415020
0.419950
0.419950
0.424880
0.429800
0.434730
0.434730
0.439660
0.444580
0.454430
0.460590
0.465520
0.470440
0.480300
0.485220
0.495070
0.504930
0.514780
0.524630
0.539410
0.555420
0.570200
0.594830
0.619460
0.640390
0.655170
0.674880
0.684730
0.689660
0.684730
0.669950
0.645320
0.604680
0.565270
0.529560
0.495070
0.465520
0.439660
0.424880
0.415020
0.410100
0.405170
0.400250
0.400250
0.400250
0.405170
0.410100
0.415020
0.415020
0.419950
0.419950
0.429800
0.429800
0.434730
0.434730
0.434730
0.434730
0.434730
0.434730
0.434730
0.434730
0.434730
0.429800
0.429800
0.429800
0.434730
0.439660
0.454430
0.470440
0.480300
0.500000
0.524630
0.529560
0.524630
0.519700
0.504930
0.480300
0.449510
0.424880
0.415020
0.410100
0.410100
0.405170
0.410100
0.410100
0.419950
0.434730
0.490150
0.614530
0.789410
0.859610
0.725370
0.529560
0.424880
0.405170
0.410100
0.415020
0.415020
0.415020
0.419950
0.424880
0.424880
0.429800
0.434730
0.439660
0.444580
0.449510
0.460590
0.465520
0.470440
0.480300
0.485220
0.495070
0.500000
0.514780
0.524630
0.539410
0.555420
0.565270
0.584980
0.609610
0.630540
0.650250
0.669950
0.679800
0.684730
0.689660
0.669950
0.645320
0.614530
0.580050
0.539410
0.500000
0.470440
0.444580
0.429800
0.415020
0.410100
0.410100
0.405170
0.405170
0.405170
0.400250
0.400250
0.405170
0.405170
0.410100
0.415020
0.415020
0.419950
0.419950
0.424880
0.429800
0.429800
0.429800
0.429800
0.429800
0.429800
0.424880
0.424880
0.424880
0.424880
0.424880
0.429800
0.439660
0.454430
0.465520
0.480300
0.504930
0.519700
0.524630
0.514780
0.504930
0.490150
0.460590
0.429800
0.415020
0.410100
0.405170
0.405170
0.405170
0.405170
0.410100
0.419950
0.449510
0.519700
0.674880
0.844830
0.874380
0.665020
0.480300
0.405170
0.395320
0.410100
0.415020
0.415020
0.415020
0.419950
0.419950
0.419950
0.429800
0.429800
0.434730
0.439660
0.449510
0.454430
0.460590
0.465520
0.475370
0.485220
0.495070
0.504930
0.519700
0.524630
0.539410
0.555420
0.575120
0.599750
0.624380
0.645320
0.665020
0.679800
0.694580
0.699510
0.694580
0.674880
0.650250
0.609610
0.570200
0.524630
0.490150
0.454430
0.434730
0.419950
0.410100
0.400250
0.395320
0.395320
0.395320
0.395320
0.400250
0.405170
0.405170
0.410100
0.415020
0.415020
0.419950
0.419950
0.429800
0.429800
0.429800
0.429800
0.429800
0.429800
0.429800
0.429800
0.429800
0.429800
0.429800
0.429800
0.424880
0.434730
0.449510
0.460590
0.470440
0.485220
0.509850
0.519700
0.514780
0.509850
0.500000
0.480300
0.454430
0.424880
0.415020
0.410100
0.405170
0.400250
0.400250
0.410100
0.415020
0.429800
0.470440
0.580050
0.759850
0.890390
0.810340
0.599750
0.449510
0.405170
0.410100
0.415020
0.415020
0.419950
0.419950
0.424880
0.429800
0.429800
0.434730
0.439660
0.449510
0.454430
0.465520
0.470440
0.480300
0.480300
0.490150
0.500000
0.509850
0.519700
0.524630
0.539410
0.555420
0.570200
0.589900
0.609610
0.630540
0.650250
0.669950
0.684730
0.694580
0.694580
0.684730
0.665020
0.635470
0.599750
0.560340
0.519700
0.490150
0.460590
0.439660
0.424880
0.415020
0.410100
0.410100
0.410100
0.405170
0.405170
0.410100
0.410100
0.415020
0.415020
0.419950
0.429800
0.429800
0.429800
0.434730
0.434730
0.434730
0.434730
0.434730
0.434730
0.434730
0.434730
0.439660
0.434730
0.434730
0.434730
0.439660
0.454430
0.465520
0.480300
0.490150
0.514780
0.529560
0.529560
0.524630
0.514780
0.495070
0.470440
0.439660
0.419950
0.415020
0.410100
0.410100
0.410100
0.410100
0.415020
0.424880
0.460590
0.534480
0.694580
0.854680
0.874380
0.655170
0.480300
0.415020
0.410100
0.419950
0.419950
0.419950
0.419950
0.424880
0.429800
0.429800
0.434730
0.439660
0.449510
0.449510
0.460590
0.465520
0.475370
0.480300
0.495070
0.500000
0.504930
0.514780
0.524630
0.534480
0.555420
0.570200
0.584980
0.609610
0.635470
0.655170
0.674880
0.689660
0.699510
0.704430
0.704430
0.684730
0.655170
0.619460
0.580050
0.539410
0.504930
0.475370
0.449510
0.434730
0.424880
0.419950
0.419950
0.419950
0.419950
0.419950
0.424880
0.424880
0.429800
0.434730
0.434730
0.439660
0.439660
0.439660
0.444580
0.444580
0.444580
0.449510
0.444580
0.444580
0.449510
0.449510
0.449510
0.449510
0.449510
0.454430
0.454430
0.465520
0.480300
0.490150
0.500000
0.524630
0.545570
0.550490
0.539410
0.529560
0.514780
0.490150
0.460590
0.434730
0.424880
0.419950
0.419950
0.424880
0.424880
0.429800
0.434730
0.454430
0.514780
0.655170
0.825120
0.869460
0.704430
0.519700
0.429800
0.419950
0.429800
0.434730
0.434730
0.434730
0.439660
0.439660
0.444580
0.449510
0.454430
0.460590
0.465520
0.470440
0.480300
0.485220
0.495070
0.500000
0.504930
0.514780
0.524630
0.534480
0.545570
0.560340
0.570200
0.589900
0.609610
0.635470
0.655170
0.674880
0.689660
0.704430
0.709360
0.715520
0.694580
0.669950
0.635470
0.594830
0.555420
0.519700
0.490150
0.460590
0.444580
0.434730
0.424880
0.419950
0.419950
0.415020
0.415020
0.415020
0.419950
0.424880
0.429800
0.429800
0.434730
0.434730
0.439660
0.439660
0.439660
0.439660
0.444580
0.444580
0.444580
0.444580
0.439660
0.439660
0.439660
0.439660
0.439660
0.444580
0.454430
0.465520
0.475370
0.480300
0.500000
0.519700
0.529560
0.524630
0.514780
0.504930
0.480300
0.454430
0.429800
0.415020
0.410100
0.410100
0.410100
0.410100
0.410100
0.415020
0.434730
0.490150
0.609610
0.789410
0.890390
0.774630
0.570200
0.444580
0.410100
0.415020
0.419950
0.419950
0.419950
0.419950
0.424880
0.429800
0.434730
0.439660
0.444580
0.454430
0.460590
0.465520
0.475370
0.480300
0.490150
0.495070
0.504930
0.509850
0.519700
0.529560
0.545570
0.560340
0.580050
0.599750
0.624380
0.645320
0.669950
0.684730
0.699510
0.709360
0.715520
0.694580
0.669950
0.635470
0.594830
0.550490
0.509850
0.475370
0.449510
0.429800
0.419950
0.410100
0.405170
0.405170
0.410100
0.410100
0.410100
0.410100
0.410100
0.415020
0.415020
0.419950
0.419950
0.424880
0.429800
0.429800
0.429800
0.429800
0.434730
0.429800
0.429800
0.429800
0.429800
0.429800
0.429800
0.429800
0.429800
0.439660
0.449510
0.465520
0.475370
0.495070
0.514780
0.524630
0.519700
0.514780
0.500000
0.475370
0.444580
0.419950
0.410100
0.405170
0.405170
0.410100
0.410100
0.410100
0.419950
0.439660
0.490150
0.614530
0.800490
0.890390
0.764780
0.560340
0.439660
0.410100
0.415020
0.419950
0.419950
0.419950
0.419950
0.424880
0.429800
0.434730
0.439660
0.444580
0.449510
0.454430
0.460590
0.470440
0.480300
0.485220
0.490150
0.500000
0.509850
0.519700
0.524630
0.539410
0.560340
0.575120
0.599750
0.619460
0.645320
0.665020
0.679800
0.694580
0.699510
0.699510
0.684730
0.665020
0.630540
0.589900
0.550490
0.514780
0.475370
0.454430
0.434730
0.419950
0.415020
0.410100
0.410100
0.410100
0.410100
0.410100
0.415020
0.415020
0.419950
0.429800
0.429800
0.429800
0.434730
0.434730
0.434730
0.434730
0.439660
0.439660
0.439660
0.434730
0.434730
0.439660
0.439660
0.439660
0.439660
0.439660
0.439660
0.454430
0.470440
0.480300
0.495070
0.524630
0.534480
0.529560
0.524630
0.514780
0.490150
0.460590
0.434730
0.419950
0.415020
0.410100
0.410100
0.410100
0.410100
0.415020
0.429800
0.465520
0.565270
0.735220
0.864530
0.795570
0.594830
0.444580
0.400250
0.410100
0.415020
0.415020
0.415020
0.419950
0.419950
0.424880
0.429800
0.434730
0.439660
0.444580
0.449510
0.454430
0.460590
0.470440
0.480300
0.485220
0.495070
0.504930
0.514780
0.524630
0.534480
0.550490
0.570200
0.589900
0.609610
0.635470
0.655170
0.674880
0.684730
0.694580
0.699510
0.694580
0.669950
0.635470
0.599750
0.560340
0.519700
0.490150
0.460590
0.439660
0.419950
0.415020
0.410100
0.405170
0.400250
0.400250
0.405170
0.410100
0.410100
0.410100
0.410100
0.415020
0.419950
0.419950
0.424880
0.429800
0.429800
0.434730
0.434730
0.434730
0.434730
0.434730
0.434730
0.434730
0.434730
0.434730
0.439660
0.444580
0.454430
0.470440
0.480300
0.490150
0.519700
0.534480
0.539410
0.524630
0.519700
0.495070
0.470440
0.434730
0.419950
0.415020
0.410100
0.405170
0.405170
0.405170
0.410100
0.424880
0.454430
0.529560
0.689660
0.844830
0.859610
0.640390
0.480300
0.410100
0.410100
0.419950
0.419950
0.419950
0.424880
0.424880
0.429800
0.429800
0.434730
0.439660
0.444580
0.449510
0.454430
0.465520
0.470440
0.475370
0.485220
0.495070
0.500000
0.509850
0.519700
0.529560
0.545570
0.560340
0.580050
0.599750
0.624380
0.650250
0.665020
0.679800
0.694580
0.699510
0.694580
0.674880
0.650250
0.609610
0.570200
0.534480
0.500000
0.470440
0.449510
0.429800
0.419950
0.410100
0.410100
0.410100
0.405170
0.405170
0.410100
0.410100
0.415020
0.415020
0.419950
0.424880
0.429800
0.429800
0.429800
0.429800
0.434730
0.434730
0.434730
0.434730
0.434730
0.429800
0.429800
0.429800
0.429800
0.434730
0.439660
0.454430
0.465520
0.475370
0.490150
0.514780
0.524630
0.519700
0.514780
0.504930
0.490150
0.460590
0.429800
0.415020
0.410100
0.410100
0.410100
0.410100
0.415020
0.419950
0.429800
0.470440
0.575120
0.754930
0.900250
0.834980
0.630540
0.465520
0.410100
0.410100
0.415020
0.415020
0.415020
0.415020
0.419950
0.419950
0.429800
0.429800
0.439660
0.449510
0.449510
0.454430
0.460590
0.470440
0.475370
0.485220
0.495070
0.500000
0.514780
0.524630
0.534480
0.555420
0.570200
0.589900
0.614530
0.640390
0.665020
0.679800
0.699510
0.709360
0.715520
0.704430
0.679800
0.650250
0.609610
0.565270
0.524630
0.490150
0.454430
0.434730
0.419950
0.410100
0.400250
0.400250
0.400250
0.400250
0.405170
0.410100
0.415020
0.415020
0.419950
0.419950
0.424880
0.429800
0.429800
0.434730
0.429800
0.434730
0.434730
0.429800
0.429800
0.429800
0.434730
0.429800
0.429800
0.429800
0.429800
0.429800
0.444580
0.460590
0.470440
0.480300
0.504930
0.524630
0.524630
0.519700
0.509850
0.495070
0.465520
0.434730
0.419950
0.410100
0.410100
0.405170
0.405170
0.410100
0.410100
0.419950
0.454430
0.529560
0.684730
0.849750
0.880540
0.665020
0.490150
0.410100
0.405170
0.415020
0.415020
0.415020
0.415020
0.415020
0.419950
0.429800
0.434730
0.439660
0.444580
0.449510
0.460590
0.465520
0.475370
0.480300
0.485220
0.495070
0.504930
0.514780
0.524630
0.534480
0.545570
0.565270
0.584980
0.609610
0.630540
0.650250
0.669950
0.689660
0.699510
0.704430
0.699510
0.679800
0.655170
0.619460
0.580050
0.539410
0.504930
0.475370
0.449510
0.434730
0.419950
0.415020
0.415020
0.410100
0.410100
0.415020
0.415020
0.415020
0.419950
0.419950
0.424880
0.429800
0.434730
0.434730
0.434730
0.434730
0.434730
0.434730
0.434730
0.434730
0.434730
0.439660
0.434730
0.434730
0.434730
0.439660
0.444580
0.454430
0.470440
0.475370
0.485220
0.514780
0.529560
0.534480
0.529560
0.519700
0.500000
0.470440
0.439660
0.419950
0.415020
0.410100
0.410100
0.410100
0.415020
0.415020
0.429800
0.460590
0.534480
0.684730
0.844830
0.869460
0.660100
0.490150
0.415020
0.410100
0.419950
0.419950
0.424880
0.429800
0.434730
0.434730
0.434730
0.439660
0.444580
0.449510
0.454430
0.460590
0.470440
0.480300
0.485220
0.495070
0.500000
0.504930
0.514780
0.524630
0.534480
0.555420
0.565270
0.584980
0.609610
0.630540
0.655170
0.674880
0.689660
0.704430
0.709360
0.704430
0.684730
0.655170
0.619460
0.580050
0.539410
0.504930
0.475370
0.449510
0.434730
0.424880
0.415020
0.415020
0.415020
0.415020
0.415020
0.415020
0.419950
0.419950
0.429800
0.429800
0.434730
0.439660
0.439660
0.439660
0.439660
0.439660
0.434730
0.434730
0.434730
0.434730
0.434730
0.434730
0.434730
0.439660
0.439660
0.439660
0.454430
0.470440
0.480300
0.490150
0.514780
0.529560
0.529560
0.524630
0.519700
0.500000
0.470440
0.444580
0.424880
0.415020
0.415020
0.410100
0.410100
0.410100
0.415020
0.429800
0.454430
0.534480
0.694580
0.849750
0.869460
0.650250
0.480300
0.415020
0.410100
0.419950
0.419950
0.424880
0.424880
0.429800
0.434730
0.434730
0.434730
0.439660
0.449510
0.454430
0.460590
0.465520
0.470440
0.475370
0.485220
0.495070
0.504930
0.514780
0.519700
0.534480
0.545570
0.565270
0.584980
0.604680
0.624380
0.650250
0.669950
0.684730
0.699510
0.704430
0.699510
0.679800
0.655170
0.619460
0.580050
0.539410
0.504930
0.470440
0.449510
0.434730
0.424880
0.415020
0.410100
0.410100
0.415020
0.415020
0.415020
0.419950
0.419950
0.424880
0.429800
0.429800
0.429800
0.429800
0.434730
0.434730
0.434730
0.434730
0.434730
0.429800
0.429800
0.429800
0.429800
0.429800
0.429800
0.429800
0.429800
0.444580
0.454430
0.465520
0.475370
0.500000
0.519700
0.519700
0.514780
0.504930
0.485220
0.460590
0.429800
0.415020
0.410100
0.405170
0.405170
0.405170
0.405170
0.415020
0.424880
0.460590
0.560340
0.740150
0.895320
0.905170
0.645320
0.475370
0.410100
0.410100
0.415020
0.415020
0.415020
0.415020
0.419950
0.419950
0.429800
0.434730
0.434730
0.439660
0.449510
0.460590
0.465520
0.475370
0.480300
0.485220
0.495070
0.504930
0.514780
0.524630
0.539410
0.555420
0.570200
0.589900
0.614530
0.635470
0.655170
0.679800
0.694580
0.704430
0.715520
0.704430
0.679800
0.650250
0.609610
0.570200
0.529560
0.495070
0.470440
0.444580
0.429800
0.419950
0.415020
0.415020
0.415020
0.415020
0.415020
0.419950
0.419950
0.424880
0.429800
0.429800
0.434730
0.434730
0.439660
0.439660
0.439660
0.439660
0.439660
0.439660
0.439660
0.439660
0.439660
0.439660
0.439660
0.439660
0.439660
0.449510
0.460590
0.475370
0.480300
0.495070
0.519700
0.534480
0.534480
0.529560
0.519700
0.500000
0.470440
0.444580
0.429800
0.419950
0.419950
0.415020
0.415020
0.419950
0.419950
0.434730
0.475370
0.575120
0.745070
0.874380
0.805420
0.604680
0.460590
0.410100
0.415020
0.415020
0.415020
0.419950
0.419950
0.424880
0.429800
0.434730
0.439660
0.444580
0.449510
0.460590
0.460590
0.465520
0.475370
0.480300
0.495070
0.500000
0.504930
0.514780
0.524630
0.539410
0.550490
0.570200
0.589900
0.609610
0.635470
0.655170
0.674880
0.689660
0.699510
0.704430
0.694580
0.674880
0.645320
0.604680
0.565270
0.524630
0.490150
0.465520
0.449510
0.434730
0.419950
0.419950
0.415020
0.415020
0.415020
0.415020
0.415020
0.419950
0.419950
0.424880
0.429800
0.429800
0.434730
0.434730
0.439660
0.439660
0.439660
0.439660
0.439660
0.439660
0.439660
0.439660
0.439660
0.439660
0.439660
0.444580
0.454430
0.465520
0.475370
0.485220
0.504930
0.529560
0.539410
0.529560
0.519700
0.504930
0.475370
0.449510
0.424880
0.415020
0.410100
0.410100
0.410100
0.410100
0.410100
0.419950
0.439660
0.495070
0.624380
0.800490
0.864530
0.725370
0.529560
0.424880
0.410100
0.415020
0.419950
0.419950
0.419950
0.424880
0.424880
0.429800
0.434730
0.439660
0.444580
0.449510
0.454430
0.460590
0.465520
0.475370
0.480300
0.490150
0.500000
0.504930
0.519700
0.524630
0.539410
0.550490
0.570200
0.589900
0.614530
0.635470
0.655170
0.674880
0.689660
0.699510
0.699510
0.684730
0.660100
0.630540
0.584980
0.545570
0.509850
0.480300
0.454430
0.434730
0.424880
0.415020
0.410100
0.410100
0.410100
0.410100
0.410100
0.415020
0.415020
0.419950
0.419950
0.424880
0.429800
0.429800
0.434730
0.434730
0.439660
0.439660
0.439660
0.439660
0.439660
0.439660
0.439660
0.439660
0.439660
0.434730
0.439660
0.449510
0.465520
0.475370
0.490150
0.514780
0.534480
0.539410
0.524630
0.519700
0.500000
0.475370
0.444580
0.429800
0.419950
0.415020
0.410100
0.410100
0.410100
0.415020
0.424880
0.449510
0.514780
0.650250
0.820200
0.864530
0.694580
0.504930
0.415020
0.405170
0.415020
0.419950
0.419950
0.419950
0.419950
0.419950
0.424880
0.429800
0.429800
0.439660
0.449510
0.454430
0.460590
0.465520
0.475370
0.480300
0.490150
0.500000
0.504930
0.519700
0.534480
0.545570
0.560340
0.580050
0.599750
0.624380
0.645320
0.660100
0.674880
0.689660
0.699510
0.699510
0.679800
0.655170
0.624380
0.584980
0.545570
0.509850
0.475370
0.449510
0.434730
0.424880
0.419950
0.415020
0.415020
0.415020
0.415020
0.415020
0.419950
0.419950
0.419950
0.424880
0.429800
0.434730
0.434730
0.434730
0.434730
0.434730
0.439660
0.434730
0.434730
0.434730
0.434730
0.439660
0.434730
0.434730
0.434730
0.439660
0.444580
0.454430
0.470440
0.480300
0.500000
0.519700
0.529560
0.524630
0.519700
0.504930
0.475370
0.444580
0.419950
0.415020
0.410100
0.405170
0.410100
0.410100
0.410100
0.419950
0.444580
0.514780
0.665020
0.854680
0.910100
0.740150
0.534480
0.424880
0.410100
0.410100
0.410100
0.415020
0.415020
0.415020
0.419950
0.424880
0.429800
0.439660
0.444580
0.449510
0.454430
0.465520
0.470440
0.480300
0.485220
0.495070
0.500000
0.509850
0.519700
0.524630
0.539410
0.555420
0.575120
0.594830
0.619460
0.645320
0.665020
0.679800
0.694580
0.699510
0.704430
0.684730
0.655170
0.619460
0.580050
0.539410
0.500000
0.470440
0.444580
0.429800
0.415020
0.410100
0.410100
0.410100
0.410100
0.410100
0.410100
0.415020
0.415020
0.415020
0.419950
0.424880
0.429800
0.429800
0.434730
0.429800
0.429800
0.434730
0.434730
0.434730
0.429800
0.429800
0.429800
0.429800
0.429800
0.429800
0.429800
0.434730
0.449510
0.465520
0.475370
0.495070
0.514780
0.524630
0.519700
0.514780
0.500000
0.480300
0.449510
0.424880
0.410100
0.405170
