0.402740
0.397850
0.393940
0.391010
0.387100
0.384160
0.380250
0.376340
0.372430
0.368520
0.364610
0.360700
0.356790
0.353860
0.349950
0.348000
0.346040
0.344090
0.341150
0.339200
0.338220
0.337240
0.337240
0.336270
0.335290
0.334310
0.332360
0.332360
0.331380
0.330400
0.329420
0.327470
0.324540
0.321600
0.319650
0.318670
0.322580
0.332360
0.350930
0.377320
0.406650
0.438910
0.478010
0.521020
0.563050
0.600200
0.630500
0.652980
0.668620
0.678400
0.681330
0.681330
0.677420
0.672530
0.667640
0.663730
0.660800
0.657870
0.653960
0.652000
0.651030
0.650050
0.650050
0.650050
0.649070
0.647120
0.643210
0.639300
0.634410
0.628540
0.621700
0.612900
0.603130
0.591400
0.576740
0.561090
0.544480
0.528840
0.514170
0.499510
0.484850
0.473120
0.464320
0.455520
0.448680
0.442820
0.438910
0.435970
0.435000
0.433040
0.432060
0.431090
0.429130
0.427170
0.423260
0.419350
0.415440
0.410560
0.406650
0.401760
0.397850
0.392960
0.390030
0.387100
0.383190
0.379280
0.375370
0.370480
0.364610
0.359730
0.355820
0.350930
0.347020
0.345060
0.343110
0.342130
0.341150
0.340180
0.339200
0.338220
0.336270
0.335290
0.333330
0.331380
0.328450
0.326490
0.325510
0.324540
0.323560
0.322580
0.321600
0.320630
0.321600
0.325510
0.336270
0.353860
0.380250
0.414470
0.454550
0.496580
0.533720
0.565000
0.597260
0.624630
0.646140
0.661780
0.670580
0.674490
0.674490
0.671550
0.667640
0.663730
0.660800
0.656890
0.653960
0.651030
0.649070
0.647120
0.645160
0.643210
0.641250
0.638320
0.635390
0.632450
0.627570
0.622680
0.617790
0.611930
0.604110
0.594330
0.581620
0.567940
0.553270
0.536660
0.520040
0.504400
0.489740
0.477030
0.467250
0.457480
0.449660
0.442820
0.438910
0.435970
0.434020
0.432060
0.430110
0.429130
0.427170
0.425220
0.422290
0.419350
0.416420
0.411530
0.406650
0.400780
0.395890
0.391980
0.388070
0.385140
0.382210
0.378300
0.374390
0.372430
0.368520
0.364610
0.360700
0.355820
0.352880
0.349950
0.347020
0.345060
0.343110
0.341150
0.340180
0.340180
0.338220
0.335290
0.332360
0.330400
0.328450
0.326490
0.324540
0.323560
0.321600
0.320630
0.318670
0.316720
0.315740
0.316720
0.322580
0.333330
0.352880
0.380250
0.413490
0.452590
0.495600
0.536660
0.575760
0.605080
0.627570
0.646140
0.659820
0.668620
0.671550
0.671550
0.668620
0.663730
0.658850
0.654940
0.651030
0.647120
0.644180
0.642230
0.641250
0.640270
0.640270
0.639300
0.637340
0.634410
0.631480
0.626590
0.621700
0.614860
0.608020
0.599220
0.588470
0.576740
0.562070
0.546430
0.529810
0.513200
0.496580
0.481920
0.468230
0.457480
0.447700
0.440860
0.435970
0.432060
0.430110
0.428150
0.426200
0.424240
0.423260
0.420330
0.417400
0.413490
0.409580
0.405670
0.402740
0.398830
0.394920
0.391010
0.388070
0.384160
0.380250
0.375370
0.370480
0.366570
0.361680
0.356790
0.352880
0.348970
0.345060
0.342130
0.340180
0.338220
0.337240
0.335290
0.334310
0.332360
0.330400
0.329420
0.328450
0.328450
0.327470
0.325510
0.324540
0.323560
0.321600
0.318670
0.315740
0.312810
0.310850
0.310850
0.314760
0.322580
0.335290
0.355820
0.385140
0.421310
0.463340
0.507330
0.549360
0.588470
0.619750
0.647120
0.666670
0.676440
0.681330
0.681330
0.679370
0.676440
0.671550
0.668620
0.665690
0.661780
0.659820
0.658850
0.657870
0.657870
0.656890
0.655910
0.653960
0.652000
0.649070
0.646140
0.641250
0.635390
0.627570
0.618770
0.607040
0.594330
0.581620
0.567940
0.553270
0.537630
0.521990
0.507330
0.493650
0.480940
0.470190
0.462370
0.454550
0.449660
0.445750
0.442820
0.440860
0.438910
0.437930
0.435970
0.434020
0.432060
0.429130
0.425220
0.420330
0.416420
0.412510
0.408600
0.404690
0.400780
0.396870
0.393940
0.391010
0.387100
0.384160
0.381230
0.378300
0.374390
0.371460
0.367550
0.365590
0.363640
0.361680
0.358750
0.355820
0.352880
0.348970
0.346040
0.343110
0.340180
0.338220
0.335290
0.333330
0.332360
0.331380
0.329420
0.328450
0.326490
0.325510
0.323560
0.323560
0.325510
0.334310
0.349950
0.368520
0.391980
0.425220
0.465300
0.507330
0.549360
0.588470
0.620720
0.646140
0.663730
0.675460
0.681330
0.682310
0.680350
0.675460
0.670580
0.666670
0.662760
0.658850
0.656890
0.654940
0.653960
0.652980
0.651030
0.649070
0.647120
0.644180
0.641250
0.637340
0.633430
0.627570
0.621700
0.614860
0.605080
0.594330
0.581620
0.566960
0.551320
0.536660
0.522970
0.507330
0.492670
0.478980
0.467250
0.456500
0.448680
0.442820
0.439880
0.436950
0.435000
0.434020
0.433040
0.431090
0.429130
0.426200
0.422290
0.418380
0.413490
0.408600
0.403710
0.398830
0.395890
0.391980
0.388070
0.385140
0.381230
0.377320
0.372430
0.368520
0.364610
0.360700
0.355820
0.351910
0.348970
0.347020
0.346040
0.345060
0.344090
0.344090
0.343110
0.341150
0.340180
0.338220
0.336270
0.334310
0.333330
0.331380
0.329420
0.329420
0.328450
0.326490
0.324540
0.322580
0.321600
0.324540
0.332360
0.347020
0.370480
0.401760
0.439880
0.475070
0.509290
0.547410
0.582600
0.612900
0.637340
0.653960
0.664710
0.670580
0.672530
0.670580
0.666670
0.662760
0.657870
0.653960
0.649070
0.646140
0.643210
0.641250
0.640270
0.639300
0.637340
0.635390
0.633430
0.630500
0.626590
0.622680
0.616810
0.609970
0.600200
0.589440
0.577710
0.564030
0.550340
0.534700
0.519060
0.503420
0.487780
0.475070
0.464320
0.454550
0.445750
0.438910
0.434020
0.430110
0.428150
0.426200
0.424240
0.423260
0.420330
0.417400
0.415440
0.413490
0.409580
0.405670
0.401760
0.397850
0.393940
0.391010
0.387100
0.383190
0.378300
0.372430
0.368520
0.365590
0.361680
0.356790
0.351910
0.346040
0.342130
0.340180
0.338220
0.336270
0.334310
0.333330
0.332360
0.331380
0.330400
0.328450
0.325510
0.322580
0.319650
0.316720
0.313780
0.311830
0.309870
0.306940
0.304990
0.303030
0.303030
0.302050
0.304010
0.311830
0.325510
0.348000
0.378300
0.415440
0.458460
0.501470
0.543500
0.576740
0.602150
0.623660
0.641250
0.652000
0.657870
0.659820
0.657870
0.654940
0.650050
0.647120
0.643210
0.640270
0.636360
0.633430
0.629520
0.626590
0.624630
0.622680
0.620720
0.619750
0.617790
0.614860
0.610950
0.605080
0.597260
0.589440
0.578690
0.566960
0.553270
0.538610
0.521990
0.505380
0.489740
0.474100
0.459430
0.446730
0.437930
0.430110
0.424240
0.419350
0.414470
0.411530
0.409580
0.407620
0.406650
0.404690
0.401760
0.397850
0.393940
0.390030
0.388070
0.385140
0.381230
0.377320
0.373410
0.368520
0.364610
0.360700
0.355820
0.351910
0.347020
0.343110
0.341150
0.337240
0.334310
0.332360
0.330400
0.328450
0.327470
0.326490
0.325510
0.323560
0.322580
0.320630
0.318670
0.316720
0.314760
0.312810
0.311830
0.309870
0.308900
0.306940
0.305960
0.304010
0.302050
0.301080
0.300100
0.302050
0.308900
0.320630
0.341150
0.369500
0.406650
0.448680
0.492670
0.535680
0.573800
0.606060
0.630500
0.647120
0.656890
0.663730
0.665690
0.664710
0.659820
0.653960
0.648090
0.641250
0.636360
0.632450
0.628540
0.626590
0.624630
0.624630
0.623660
0.622680
0.621700
0.620720
0.618770
0.615840
0.611930
0.605080
0.596290
0.585530
0.574780
0.564030
0.550340
0.535680
0.519060
0.503420
0.487780
0.473120
0.460410
0.448680
0.440860
0.434020
0.430110
0.428150
0.426200
0.424240
0.423260
0.421310
0.419350
0.416420
0.413490
0.409580
0.406650
0.403710
0.400780
0.396870
0.393940
0.391010
0.387100
0.383190
0.378300
0.373410
0.368520
0.364610
0.359730
0.355820
0.350930
0.347020
0.344090
0.340180
0.337240
0.335290
0.333330
0.331380
0.329420
0.328450
0.326490
0.325510
0.323560
0.320630
0.319650
0.318670
0.317690
0.315740
0.313780
0.310850
0.307920
0.304990
0.301080
0.299120
0.299120
0.303030
0.311830
0.325510
0.348970
0.380250
0.417400
0.459430
0.502440
0.542520
0.576740
0.605080
0.626590
0.641250
0.650050
0.653960
0.653960
0.651030
0.646140
0.641250
0.636360
0.633430
0.629520
0.626590
0.624630
0.623660
0.622680
0.621700
0.619750
0.617790
0.615840
0.612900
0.609970
0.605080
0.598240
0.589440
0.579670
0.568910
0.561090
0.552300
0.541540
0.529810
0.516130
0.501470
0.486800
0.474100
0.462370
0.452590
0.444770
0.436950
0.431090
0.426200
0.423260
0.422290
0.420330
0.419350
0.416420
0.413490
0.408600
0.404690
0.401760
0.398830
0.394920
0.391980
0.387100
0.383190
0.380250
0.376340
0.371460
0.367550
0.363640
0.359730
0.356790
0.352880
0.350930
0.348970
0.347020
0.346040
0.346040
0.345060
0.343110
0.342130
0.339200
0.337240
0.335290
0.333330
0.331380
0.330400
0.328450
0.327470
0.326490
0.324540
0.322580
0.320630
0.316720
0.313780
0.310850
0.309870
0.312810
0.322580
0.338220
0.362660
0.389050
0.417400
0.454550
0.494620
0.533720
0.569890
0.600200
0.622680
0.639300
0.649070
0.653960
0.654940
0.652980
0.649070
0.644180
0.639300
0.636360
0.633430
0.630500
0.628540
0.627570
0.626590
0.625610
0.624630
0.623660
0.621700
0.618770
0.614860
0.610950
0.605080
0.598240
0.589440
0.579670
0.567940
0.554250
0.539590
0.522970
0.509290
0.496580
0.483870
0.471160
0.459430
0.448680
0.440860
0.433040
0.428150
0.424240
0.421310
0.419350
0.417400
0.416420
0.415440
0.414470
0.412510
0.409580
0.405670
0.402740
0.399800
0.395890
0.391980
0.387100
0.382210
0.377320
0.373410
0.369500
0.364610
0.360700
0.357770
0.354840
0.352880
0.351910
0.349950
0.348000
0.344090
0.341150
0.339200
0.337240
0.335290
0.333330
0.330400
0.327470
0.325510
0.324540
0.322580
0.320630
0.319650
0.318670
0.317690
0.317690
0.315740
0.312810
0.309870
0.307920
0.307920
0.313780
0.325510
0.345060
0.373410
0.408600
0.448680
0.484850
0.519060
0.555230
0.587490
0.613880
0.634410
0.648090
0.654940
0.656890
0.654940
0.650050
0.644180
0.639300
0.634410
0.630500
0.628540
0.627570
0.626590
0.626590
0.625610
0.624630
0.623660
0.621700
0.618770
0.614860
0.610950
0.605080
0.598240
0.589440
0.580650
0.568910
0.557180
0.543500
0.527860
0.513200
0.497560
0.481920
0.469210
0.458460
0.448680
0.439880
0.433040
0.428150
0.425220
0.422290
0.420330
0.417400
0.415440
0.412510
0.410560
0.408600
0.407620
0.404690
0.402740
0.399800
0.395890
0.391980
0.386120
0.381230
0.376340
0.371460
0.366570
0.363640
0.360700
0.358750
0.356790
0.354840
0.352880
0.351910
0.349950
0.348000
0.347020
0.345060
0.344090
0.342130
0.342130
0.343110
0.343110
0.342130
0.342130
0.342130
0.341150
0.340180
0.339200
0.337240
0.334310
0.330400
0.327470
0.325510
0.323560
0.323560
0.329420
0.344090
0.368520
0.399800
0.437930
0.480940
0.526880
0.570870
0.606060
0.633430
0.658850
0.677420
0.689150
0.695990
0.697950
0.695990
0.692080
0.686220
0.680350
0.674490
0.669600
0.665690
0.662760
0.662760
0.662760
0.662760
0.662760
0.661780
0.660800
0.658850
0.655910
0.652000
0.647120
0.641250
0.634410
0.626590
0.616810
0.605080
0.591400
0.576740
0.560120
0.543500
0.527860
0.514170
0.500490
0.487780
0.478010
0.471160
0.465300
0.461390
0.458460
0.456500
0.454550
0.452590
0.450640
0.448680
0.444770
0.440860
0.436950
0.434020
0.429130
0.424240
0.419350
0.414470
0.409580
0.405670
0.402740
0.398830
0.394920
0.390030
0.386120
0.382210
0.379280
0.376340
0.373410
0.369500
0.367550
0.364610
0.361680
0.358750
0.356790
0.354840
0.352880
0.351910
0.351910
0.350930
0.348970
0.346040
0.344090
0.342130
0.340180
0.339200
0.336270
0.333330
0.331380
0.329420
0.328450
0.331380
0.337240
0.350930
0.373410
0.404690
0.443790
0.486800
0.531770
0.574780
0.612900
0.644180
0.665690
0.679370
0.689150
0.695010
0.696970
0.695010
0.691100
0.686220
0.681330
0.676440
0.672530
0.668620
0.665690
0.663730
0.661780
0.660800
0.658850
0.657870
0.654940
0.652000
0.647120
0.643210
0.637340
0.630500
0.621700
0.612900
0.603130
0.590420
0.574780
0.559140
0.541540
0.523950
0.506350
0.490710
0.478010
0.467250
0.458460
0.451610
0.447700
0.445750
0.443790
0.441840
0.439880
0.437930
0.436950
0.435000
0.432060
0.428150
0.423260
0.419350
0.416420
0.413490
0.410560
0.406650
0.403710
0.400780
0.396870
0.393940
0.391010
0.388070
0.383190
0.378300
0.373410
0.369500
0.366570
0.362660
0.359730
0.356790
0.354840
0.352880
0.351910
0.349950
0.348970
0.348000
0.346040
0.346040
0.345060
0.344090
0.343110
0.342130
0.340180
0.338220
0.335290
0.332360
0.329420
0.328450
0.329420
0.334310
0.343110
0.357770
0.382210
0.414470
0.452590
0.494620
0.537630
0.577710
0.613880
0.642230
0.663730
0.678400
0.686220
0.690130
0.690130
0.688170
0.684260
0.680350
0.676440
0.672530
0.668620
0.665690
0.662760
0.661780
0.660800
0.658850
0.656890
0.654940
0.652000
0.649070
0.645160
0.641250
0.634410
0.626590
0.617790
0.608020
0.595310
0.582600
0.569890
0.554250
0.538610
0.522970
0.509290
0.495600
0.482890
0.472140
0.463340
0.456500
0.451610
0.448680
0.446730
0.444770
0.442820
0.440860
0.439880
0.437930
0.435970
0.432060
0.428150
0.423260
0.417400
0.408600
0.399800
0.393940
0.388070
0.383190
0.378300
0.373410
0.370480
0.366570
0.362660
0.358750
0.354840
0.351910
0.349950
0.348000
0.347020
0.344090
0.341150
0.339200
0.337240
0.335290
0.334310
0.332360
0.330400
0.329420
0.327470
0.326490
0.326490
0.324540
0.321600
0.316720
0.313780
0.310850
0.308900
0.309870
0.315740
0.328450
0.348000
0.371460
0.398830
0.435000
0.476050
0.519060
0.560120
0.596290
0.626590
0.650050
0.664710
0.674490
0.678400
0.679370
0.676440
0.672530
0.667640
0.663730
0.659820
0.655910
0.652980
0.650050
0.647120
0.645160
0.644180
0.642230
0.640270
0.637340
0.633430
0.628540
0.623660
0.615840
0.608020
0.598240
0.587490
0.575760
0.561090
0.545450
0.528840
0.513200
0.499510
0.485830
0.471160
0.459430
0.449660
0.440860
0.435000
0.430110
0.426200
0.424240
0.422290
0.420330
0.419350
0.418380
0.415440
0.413490
0.410560
0.407620
0.404690
0.401760
0.397850
0.393940
0.389050
0.385140
0.382210
0.380250
0.377320
0.374390
0.372430
0.369500
0.366570
0.363640
0.359730
0.356790
0.353860
0.351910
0.350930
0.350930
0.348970
0.348000
0.347020
0.346040
0.345060
0.344090
0.343110
0.342130
0.340180
0.338220
0.337240
0.336270
0.335290
0.333330
0.330400
0.328450
0.326490
0.328450
0.336270
0.350930
0.376340
0.410560
0.450640
0.489740
0.526880
0.565980
0.603130
0.635390
0.659820
0.677420
0.688170
0.693060
0.694040
0.691100
0.687190
0.683280
0.678400
0.674490
0.670580
0.666670
0.664710
0.663730
0.662760
0.662760
0.661780
0.660800
0.658850
0.655910
0.652000
0.648090
0.642230
0.635390
0.626590
0.616810
0.604110
0.589440
0.573800
0.557180
0.539590
0.521990
0.506350
0.492670
0.481920
0.470190
0.461390
0.454550
0.450640
0.448680
0.445750
0.444770
0.442820
0.439880
0.436950
0.433040
0.430110
0.426200
0.421310
0.416420
0.412510
0.407620
0.402740
0.397850
0.393940
0.391010
0.387100
0.383190
0.379280
0.375370
0.370480
0.365590
0.360700
0.355820
0.352880
0.350930
0.348970
0.347020
0.346040
0.345060
0.344090
0.344090
0.343110
0.343110
0.342130
0.341150
0.340180
0.338220
0.337240
0.335290
0.334310
0.332360
0.331380
0.330400
0.328450
0.327470
0.328450
0.334310
0.347020
0.368520
0.398830
0.435970
0.479960
0.525900
0.568910
0.603130
0.629520
0.652980
0.670580
0.682310
0.690130
0.693060
0.692080
0.690130
0.686220
0.681330
0.676440
0.671550
0.667640
0.663730
0.660800
0.657870
0.654940
0.652980
0.651030
0.649070
0.647120
0.645160
0.641250
0.635390
0.628540
0.620720
0.609970
0.598240
0.584560
0.568910
0.551320
0.533720
0.516130
0.500490
0.485830
0.472140
0.462370
0.454550
0.448680
0.443790
0.440860
0.436950
0.433040
0.429130
0.425220
0.421310
0.417400
0.413490
0.409580
0.405670
0.402740
0.398830
0.394920
0.391010
0.388070
0.384160
0.381230
0.378300
0.374390
0.371460
0.367550
0.364610
0.362660
0.359730
0.355820
0.350930
0.347020
0.343110
0.340180
0.338220
0.336270
0.334310
0.332360
0.330400
0.329420
0.329420
0.328450
0.326490
0.322580
0.319650
0.316720
0.312810
0.309870
0.307920
0.305960
0.304010
0.304010
0.305960
0.312810
0.325510
0.346040
0.374390
0.411530
0.453570
0.499510
0.544480
0.586510
0.622680
0.652000
0.671550
0.684260
0.693060
0.697950
0.698920
0.697950
0.694040
0.689150
0.684260
0.678400
0.674490
0.670580
0.666670
0.662760
0.660800
0.658850
0.656890
0.653960
0.652000
0.649070
0.645160
0.639300
0.632450
0.622680
0.612900
0.601170
0.589440
0.573800
0.557180
0.540570
0.521990
0.504400
0.488760
0.474100
0.461390
0.451610
0.444770
0.438910
0.435000
0.430110
0.426200
0.423260
0.420330
0.417400
0.414470
0.410560
0.406650
0.401760
0.396870
0.392960
0.391010
0.388070
0.386120
0.382210
0.379280
0.374390
0.370480
0.365590
0.360700
0.355820
0.351910
0.348000
0.345060
0.343110
0.341150
0.339200
0.337240
0.334310
0.331380
0.329420
0.327470
0.325510
0.323560
0.322580
0.320630
0.319650
0.319650
0.318670
0.317690
0.316720
0.315740
0.313780
0.311830
0.309870
0.308900
0.310850
0.317690
0.329420
0.347020
0.375370
0.411530
0.454550
0.501470
0.548390
0.591400
0.626590
0.654940
0.674490
0.687190
0.693060
0.695010
0.694040
0.690130
0.685240
0.679370
0.672530
0.666670
0.662760
0.660800
0.659820
0.658850
0.657870
0.655910
0.652980
0.651030
0.649070
0.647120
0.643210
0.637340
0.630500
0.619750
0.607040
0.593350
0.578690
0.565000
0.552300
0.536660
0.520040
0.504400
0.488760
0.475070
0.463340
0.453570
0.445750
0.439880
0.435970
0.433040
0.431090
0.430110
0.428150
0.427170
0.425220
0.423260
0.422290
0.420330
0.416420
0.412510
0.408600
0.403710
0.399800
0.395890
0.391010
0.387100
0.382210
0.377320
0.372430
0.368520
0.364610
0.361680
0.357770
0.354840
0.351910
0.349950
0.348000
0.346040
0.343110
0.341150
0.339200
0.336270
0.334310
0.332360
0.330400
0.329420
0.327470
0.325510
0.323560
0.320630
0.317690
0.314760
0.310850
0.308900
0.308900
0.312810
0.323560
0.344090
0.373410
0.411530
0.450640
0.488760
0.531770
0.575760
0.614860
0.649070
0.673510
0.690130
0.699900
0.704790
0.704790
0.702830
0.699900
0.696970
0.693060
0.690130
0.686220
0.683280
0.680350
0.678400
0.677420
0.676440
0.675460
0.673510
0.670580
0.666670
0.661780
0.655910
0.650050
0.642230
0.632450
0.620720
0.608020
0.593350
0.575760
0.557180
0.536660
0.519060
0.503420
0.487780
0.474100
0.462370
0.453570
0.446730
0.441840
0.437930
0.435000
0.432060
0.430110
0.427170
0.425220
0.423260
0.419350
0.414470
0.409580
0.404690
0.399800
0.394920
0.391010
0.388070
0.384160
0.379280
0.376340
0.374390
0.370480
0.366570
0.362660
0.357770
0.352880
0.348970
0.346040
0.342130
0.339200
0.338220
0.336270
0.335290
0.334310
0.333330
0.332360
0.331380
0.329420
0.328450
0.328450
0.327470
0.325510
0.324540
0.322580
0.321600
0.320630
0.319650
0.317690
0.318670
0.323560
0.335290
0.353860
0.382210
0.418380
0.461390
0.507330
0.553270
0.591400
0.621700
0.650050
0.673510
0.690130
0.699900
0.703810
0.703810
0.700880
0.695990
0.691100
0.686220
0.681330
0.677420
0.673510
0.670580
0.668620
0.666670
0.664710
0.661780
0.658850
0.655910
0.652000
0.648090
0.642230
0.636360
0.629520
0.620720
0.609970
0.596290
0.580650
0.563050
0.545450
0.526880
0.509290
0.492670
0.478010
0.466280
0.457480
0.449660
0.443790
0.438910
0.435000
0.433040
0.430110
0.429130
0.427170
0.425220
0.421310
0.418380
0.415440
0.410560
0.406650
0.401760
0.396870
0.391980
0.387100
0.383190
0.378300
0.372430
0.367550
0.362660
0.357770
0.354840
0.351910
0.348970
0.345060
0.341150
0.337240
0.335290
0.332360
0.329420
0.326490
0.324540
0.323560
0.323560
0.321600
0.320630
0.319650
0.317690
0.315740
0.313780
0.312810
0.310850
0.308900
0.306940
0.304990
0.304010
0.305960
0.312810
0.327470
0.349950
0.382210
0.423260
0.469210
0.518080
0.565000
0.606060
0.641250
0.665690
0.682310
0.693060
0.699900
0.700880
0.698920
0.695990
0.692080
0.688170
0.684260
0.681330
0.678400
0.676440
0.673510
0.671550
0.670580
0.669600
0.667640
0.664710
0.661780
0.656890
0.652000
0.645160
0.636360
0.626590
0.616810
0.606060
0.593350
0.577710
0.561090
0.543500
0.525900
0.507330
0.490710
0.476050
0.463340
0.453570
0.444770
0.438910
0.435000
0.430110
0.426200
0.423260
0.420330
0.419350
0.417400
0.416420
0.414470
0.411530
0.407620
0.404690
0.400780
0.394920
0.389050
0.383190
0.377320
0.372430
0.368520
0.364610
0.360700
0.356790
0.352880
0.349950
0.347020
0.346040
0.345060
0.344090
0.342130
0.341150
0.339200
0.336270
0.335290
0.332360
0.329420
0.327470
0.326490
0.325510
0.324540
0.323560
0.321600
0.320630
0.318670
0.317690
0.315740
0.312810
0.311830
0.314760
0.323560
0.337240
0.356790
0.385140
0.422290
0.465300
0.509290
0.552300
0.589440
0.621700
0.646140
0.663730
0.673510
0.677420
0.678400
0.676440
0.673510
0.670580
0.666670
0.662760
0.659820
0.656890
0.653960
0.652980
0.652000
0.652000
0.651030
0.649070
0.647120
0.644180
0.640270
0.635390
0.629520
0.621700
0.613880
0.603130
0.590420
0.575760
0.563050
0.549360
0.533720
0.517110
0.502440
0.488760
0.478010
0.469210
0.462370
0.456500
0.451610
0.447700
0.443790
0.441840
0.440860
0.439880
0.437930
0.435970
0.432060
0.428150
0.424240
0.420330
0.417400
0.412510
0.407620
0.403710
0.399800
0.394920
0.390030
0.385140
0.380250
0.376340
0.372430
0.369500
0.364610
0.360700
0.357770
0.354840
0.352880
0.349950
0.348000
0.346040
0.344090
0.342130
0.341150
0.339200
0.338220
0.336270
0.334310
0.333330
0.332360
0.332360
0.331380
0.329420
0.328450
0.326490
0.325510
0.326490
0.331380
0.343110
0.361680
0.390030
0.420330
0.453570
0.494620
0.537630
0.578690
0.615840
0.647120
0.670580
0.687190
0.697950
0.702830
0.702830
0.698920
0.694040
0.687190
0.681330
0.674490
0.669600
0.666670
0.664710
0.663730
0.663730
0.663730
0.663730
0.663730
0.661780
0.658850
0.654940
0.649070
0.643210
0.635390
0.625610
0.614860
0.601170
0.587490
0.571850
0.555230
0.538610
0.522970
0.510260
0.496580
0.483870
0.473120
0.463340
0.455520
0.448680
0.444770
0.440860
0.438910
0.436950
0.435000
0.433040
0.430110
0.427170
0.423260
0.419350
0.416420
0.412510
0.408600
0.403710
0.399800
0.394920
0.391010
0.388070
0.385140
0.383190
0.379280
0.375370
0.371460
0.367550
0.362660
0.358750
0.354840
0.350930
0.347020
0.345060
0.345060
0.343110
0.342130
0.341150
0.339200
0.337240
0.334310
0.331380
0.328450
0.325510
0.324540
0.322580
0.321600
0.320630
0.319650
0.319650
0.319650
0.323560
0.332360
0.348970
0.372430
0.405670
0.444770
0.487780
0.526880
0.561090
0.597260
0.628540
0.653960
0.671550
0.682310
0.687190
0.687190
0.684260
0.680350
0.676440
0.673510
0.665690
0.654940
0.649070
0.645160
0.643210
0.642230
0.641250
0.640270
0.639300
0.637340
0.634410
0.630500
0.625610
0.618770
0.611930
0.603130
0.592380
0.580650
0.566960
0.552300
0.536660
0.521020
0.506350
0.492670
0.479960
0.469210
0.460410
0.451610
0.444770
0.439880
0.436950
0.434020
0.432060
0.430110
0.429130
0.427170
0.424240
0.421310
0.418380
0.415440
0.411530
0.406650
0.401760
0.396870
0.391980
0.388070
0.384160
0.380250
0.376340
0.372430
0.369500
0.366570
0.363640
0.359730
0.355820
0.352880
0.349950
0.348000
0.346040
0.344090
0.342130
0.341150
0.340180
0.339200
0.338220
0.335290
0.332360
0.330400
0.328450
0.326490
0.324540
0.323560
0.321600
0.320630
0.318670
0.318670
0.318670
0.321600
0.328450
0.343110
0.364610
0.393940
0.430110
0.469210
0.510260
0.549360
0.584560
0.610950
0.630500
0.646140
0.656890
0.661780
0.663730
0.662760
0.660800
0.656890
0.652000
0.649070
0.646140
0.642230
0.639300
0.637340
0.636360
0.635390
0.635390
0.633430
0.631480
0.628540
0.624630
0.619750
0.613880
0.606060
0.597260
0.587490
0.575760
0.563050
0.548390
0.532750
0.517110
0.501470
0.486800
0.474100
0.462370
0.452590
0.444770
0.438910
0.435000
0.432060
0.430110
0.427170
0.425220
0.422290
0.419350
0.417400
0.414470
0.410560
0.406650
0.403710
0.400780
0.396870
0.392960
0.389050
0.385140
0.382210
0.378300
0.374390
0.370480
0.365590
0.359730
0.355820
0.351910
0.348000
0.346040
0.344090
0.342130
0.341150
0.339200
0.338220
0.335290
0.332360
0.330400
0.329420
0.328450
0.328450
0.327470
0.325510
0.324540
0.323560
0.321600
0.319650
0.317690
0.313780
0.311830
0.310850
0.313780
0.320630
0.335290
0.358750
0.390030
0.428150
0.471160
0.514170
0.555230
0.590420
0.618770
0.639300
0.652980
0.658850
0.659820
0.659820
0.657870
0.653960
0.650050
0.646140
0.643210
0.640270
0.638320
0.637340
0.637340
0.637340
0.636360
0.635390
0.635390
0.634410
0.632450
0.628540
0.623660
0.616810
0.608990
0.600200
0.589440
0.577710
0.565980
0.553270
0.538610
0.523950
0.508310
0.492670
0.478980
0.467250
0.457480
0.449660
0.442820
0.438910
0.436950
0.435000
0.434020
0.432060
0.431090
0.429130
0.427170
0.424240
0.421310
0.417400
0.412510
0.408600
0.403710
0.399800
0.395890
0.391980
0.387100
0.382210
0.377320
0.373410
0.368520
0.365590
0.361680
0.358750
0.355820
0.353860
0.351910
0.349950
0.348000
0.347020
0.346040
0.346040
0.346040
0.347020
0.346040
0.345060
0.343110
0.342130
0.341150
0.340180
0.339200
0.338220
0.337240
0.335290
0.334310
0.333330
0.334310
0.339200
0.349950
0.367550
0.388070
0.414470
0.448680
0.489740
0.531770
0.572830
0.608990
0.639300
0.661780
0.675460
0.684260
0.687190
0.687190
0.683280
0.679370
0.676440
0.673510
0.669600
0.666670
0.663730
0.661780
0.660800
0.659820
0.657870
0.655910
0.652980
0.650050
0.646140
0.642230
0.636360
0.630500
0.623660
0.614860
0.605080
0.593350
0.579670
0.565000
0.548390
0.534700
0.521020
0.506350
0.491690
0.478980
0.468230
0.458460
0.451610
0.446730
0.443790
0.441840
0.439880
0.438910
0.436950
0.435000
0.431090
0.427170
0.422290
0.418380
0.413490
0.409580
0.404690
0.400780
0.396870
0.393940
0.391010
0.387100
0.384160
0.380250
0.377320
0.373410
0.369500
0.365590
0.360700
0.355820
0.350930
0.347020
0.344090
0.343110
0.341150
0.340180
0.338220
0.337240
0.335290
0.334310
0.332360
0.331380
0.329420
0.328450
0.327470
0.326490
0.325510
0.321600
0.318670
0.316720
0.315740
0.318670
0.327470
0.343110
0.368520
0.400780
0.438910
0.475070
0.510260
0.548390
0.584560
0.615840
0.641250
0.658850
0.670580
0.676440
0.678400
0.676440
0.672530
0.668620
0.663730
0.659820
0.655910
0.652980
0.650050
0.649070
0.649070
0.648090
0.647120
0.645160
0.643210
0.639300
0.635390
0.630500
0.625610
0.618770
0.609970
0.599220
0.587490
0.573800
0.559140
0.543500
0.527860
0.511240
0.496580
0.483870
0.471160
0.459430
0.449660
0.442820
0.438910
0.435970
0.434020
0.432060
0.430110
0.427170
0.423260
0.420330
0.417400
0.413490
0.409580
0.405670
0.402740
0.399800
0.396870
0.393940
0.391010
0.387100
0.383190
0.380250
0.377320
0.374390
0.371460
0.367550
0.363640
0.359730
0.355820
0.351910
0.348000
0.345060
0.342130
0.339200
0.338220
0.337240
0.336270
0.335290
0.334310
0.334310
0.334310
0.333330
0.332360
0.330400
0.326490
0.322580
0.319650
0.316720
0.314760
0.313780
0.315740
0.323560
0.338220
0.359730
0.391010
0.428150
0.471160
0.514170
0.556210
0.589440
0.614860
0.636360
0.652980
0.663730
0.669600
0.670580
0.669600
0.666670
0.661780
0.656890
0.652980
0.650050
0.646140
0.643210
0.641250
0.640270
0.639300
0.638320
0.636360
0.634410
0.631480
0.627570
0.622680
0.614860
0.607040
0.598240
0.589440
0.577710
0.565000
0.550340
0.534700
0.519060
0.502440
0.487780
0.474100
0.461390
0.452590
0.444770
0.438910
0.433040
0.429130
0.426200
0.423260
0.421310
0.419350
0.417400
0.414470
0.412510
0.408600
0.405670
0.402740
0.399800
0.396870
0.393940
0.389050
0.384160
0.378300
0.373410
0.368520
0.363640
0.358750
0.355820
0.353860
0.351910
0.349950
0.348970
0.347020
0.344090
0.341150
0.337240
0.335290
0.332360
0.330400
0.329420
0.328450
0.326490
0.324540
0.322580
0.320630
0.318670
0.317690
0.315740
0.314760
0.312810
0.309870
0.307920
0.307920
0.309870
0.315740
0.328450
0.348970
0.379280
0.415440
0.457480
0.500490
0.542520
0.578690
0.608020
0.628540
0.643210
0.653960
0.661780
0.665690
0.666670
0.665690
0.663730
0.661780
0.658850
0.655910
0.652980
0.650050
0.647120
0.644180
0.642230
0.641250
0.639300
0.636360
0.633430
0.630500
0.626590
0.621700
0.614860
0.606060
0.596290
0.586510
0.574780
0.560120
0.540570
0.522970
0.506350
0.490710
0.479960
0.469210
0.459430
0.451610
0.445750
0.440860
0.438910
0.436950
0.435000
0.432060
0.430110
0.427170
0.424240
0.419350
0.415440
0.411530
0.406650
0.403710
0.400780
0.397850
0.394920
0.391010
0.387100
0.384160
0.380250
0.375370
0.372430
0.369500
0.365590
0.363640
0.361680
0.357770
0.354840
0.352880
0.350930
0.348970
0.348000
0.347020
0.345060
0.344090
0.343110
0.342130
0.342130
0.340180
0.338220
0.336270
0.334310
0.331380
0.327470
0.323560
0.319650
0.317690
0.317690
0.322580
0.331380
0.346040
0.368520
0.398830
0.436950
0.477030
0.519060
0.558160
0.592380
0.619750
0.640270
0.654940
0.661780
0.664710
0.664710
0.663730
0.660800
0.657870
0.654940
0.652000
0.649070
0.646140
0.643210
0.641250
0.638320
0.636360
0.632450
0.630500
0.627570
0.626590
0.623660
0.620720
0.615840
0.609970
0.602150
0.592380
0.580650
0.567940
0.555230
0.540570
0.524930
0.509290
0.493650
0.478980
0.466280
0.455520
0.447700
0.441840
0.436950
0.435000
0.433040
0.432060
0.430110
0.429130
0.427170
0.424240
0.420330
0.416420
0.412510
0.407620
0.403710
0.399800
0.396870
0.394920
0.391010
0.387100
0.384160
0.380250
0.375370
0.369500
0.363640
0.358750
0.353860
0.348970
0.345060
0.343110
0.342130
0.341150
0.340180
0.339200
0.338220
0.336270
0.335290
0.333330
0.332360
0.330400
0.329420
0.328450
0.328450
0.327470
0.326490
0.324540
0.322580
0.320630
0.318670
0.318670
0.321600
0.329420
0.345060
0.367550
0.393940
0.422290
0.458460
0.497560
0.536660
0.571850
0.601170
0.627570
0.650050
0.663730
0.671550
0.675460
0.674490
0.672530
0.668620
0.665690
0.662760
0.659820
0.656890
0.653960
0.651030
0.648090
0.645160
0.643210
0.640270
0.638320
0.636360
0.634410
0.631480
0.627570
0.621700
0.612900
0.603130
0.591400
0.576740
0.561090
0.543500
0.526880
0.512220
0.496580
0.481920
0.468230
0.457480
0.449660
0.442820
0.437930
0.434020
0.430110
0.428150
0.427170
0.425220
0.424240
0.422290
0.421310
0.419350
0.416420
0.412510
0.408600
0.404690
0.399800
0.396870
0.392960
0.391010
0.388070
0.385140
0.381230
0.377320
0.373410
0.368520
0.364610
0.360700
0.357770
0.354840
0.351910
0.349950
0.348970
0.347020
0.345060
0.343110
0.341150
0.339200
0.337240
0.336270
0.334310
0.333330
0.332360
0.331380
0.330400
0.329420
0.327470
0.324540
0.319650
0.316720
0.316720
0.321600
0.332360
0.351910
0.379280
0.414470
0.447700
0.481920
0.521020
0.559140
0.593350
0.620720
0.641250
0.655910
0.664710
0.668620
0.669600
0.667640
0.663730
0.658850
0.652980
0.648090
0.644180
0.642230
0.640270
0.640270
0.639300
0.639300
0.638320
0.637340
0.636360
0.633430
0.630500
0.626590
0.621700
0.613880
0.605080
0.594330
0.581620
0.566960
0.551320
0.534700
0.519060
0.503420
0.489740
0.478980
0.468230
0.459430
0.452590
0.446730
0.441840
0.436950
0.434020
0.431090
0.427170
0.424240
0.421310
0.419350
0.416420
0.412510
0.408600
0.405670
0.402740
0.398830
0.394920
0.390030
0.385140
0.380250
0.375370
0.371460
0.368520
0.364610
0.361680
0.357770
0.354840
0.351910
0.349950
0.348000
0.347020
0.345060
0.343110
0.343110
0.343110
0.342130
0.341150
0.340180
0.339200
0.338220
0.338220
0.337240
0.335290
0.333330
0.330400
0.326490
0.324540
0.323560
0.322580
0.323560
0.328450
0.340180
0.359730
0.387100
0.421310
0.461390
0.504400
0.547410
0.582600
0.609970
0.635390
0.655910
0.669600
0.677420
0.681330
0.680350
0.676440
0.672530
0.666670
0.662760
0.658850
0.654940
0.652000
0.651030
0.650050
0.650050
0.649070
0.647120
0.646140
0.644180
0.642230
0.639300
0.634410
0.628540
0.621700
0.612900
0.603130
0.591400
0.576740
0.562070
0.545450
0.528840
0.513200
0.498530
0.485830
0.474100
0.465300
0.459430
0.454550
0.449660
0.446730
0.444770
0.442820
0.440860
0.439880
0.438910
0.437930
0.435970
0.435000
0.433040
0.429130
0.425220
0.421310
0.416420
0.412510
0.407620
0.403710
0.398830
0.394920
0.390030
0.387100
0.385140
0.382210
0.378300
0.375370
0.372430
0.368520
0.364610
0.360700
0.357770
0.354840
0.352880
0.349950
0.348000
0.347020
0.345060
0.344090
0.342130
0.341150
0.339200
0.338220
0.336270
0.334310
0.331380
0.329420
0.328450
0.328450
0.332360
0.340180
0.353860
0.375370
0.404690
0.441840
0.482890
0.525900
0.565980
0.601170
0.629520
0.648090
0.660800
0.668620
0.673510
0.674490
0.672530
0.669600
0.665690
0.661780
0.658850
0.654940
0.652000
0.649070
0.647120
0.645160
0.645160
0.645160
0.644180
0.643210
0.642230
0.639300
0.635390
0.630500
0.622680
0.612900
0.603130
0.592380
0.578690
0.562070
0.546430
0.529810
0.513200
0.497560
0.482890
0.471160
0.460410
0.451610
0.446730
0.442820
0.439880
0.437930
0.436950
0.435000
0.433040
0.430110
0.426200
0.422290
0.417400
0.412510
0.408600
0.405670
0.403710
0.399800
0.396870
0.393940
0.391010
0.388070
0.384160
0.380250
0.376340
0.372430
0.367550
0.363640
0.360700
0.357770
0.354840
0.351910
0.349950
0.348970
0.347020
0.345060
0.344090
0.342130
0.341150
0.339200
0.338220
0.338220
0.337240
0.336270
0.334310
0.333330
0.331380
0.328450
0.325510
0.323560
0.322580
0.324540
0.329420
0.340180
0.358750
0.385140
0.420330
0.459430
0.502440
0.543500
0.580650
0.612900
0.637340
0.654940
0.666670
0.671550
0.672530
0.669600
0.664710
0.658850
0.652980
0.648090
0.646140
0.645160
0.644180
0.644180
0.644180
0.644180
0.643210
0.642230
0.640270
0.639300
0.636360
0.633430
0.628540
0.621700
0.612900
0.602150
0.590420
0.577710
0.565000
0.551320
0.536660
0.521020
0.506350
0.492670
0.479960
0.469210
0.459430
0.452590
0.446730
0.441840
0.438910
0.436950
0.435000
0.433040
0.431090
0.429130
0.427170
0.424240
0.421310
0.417400
0.412510
0.408600
0.404690
0.401760
0.398830
0.393940
0.389050
0.384160
0.379280
0.376340
0.372430
0.368520
0.363640
0.360700
0.357770
0.355820
0.355820
0.353860
0.352880
0.351910
0.349950
0.348000
0.345060
0.342130
0.340180
0.337240
0.335290
0.334310
0.333330
0.332360
0.331380
0.329420
0.325510
0.322580
0.320630
0.319650
0.321600
0.329420
0.344090
0.366570
0.391980
0.419350
0.454550
0.493650
0.532750
0.568910
0.600200
0.624630
0.643210
0.655910
0.662760
0.665690
0.665690
0.662760
0.658850
0.654940
0.651030
0.647120
0.644180
0.642230
0.641250
0.639300
0.639300
0.640270
0.640270
0.639300
0.637340
0.635390
0.630500
0.624630
0.617790
0.608020
0.598240
0.586510
0.574780
0.561090
0.545450
0.530790
0.517110
0.502440
0.488760
0.475070
0.463340
0.453570
0.445750
0.438910
0.434020
0.430110
0.426200
0.424240
0.422290
0.420330
0.417400
0.413490
0.410560
0.407620
0.404690
0.401760
0.397850
0.394920
0.390030
0.385140
0.380250
0.377320
0.373410
0.368520
0.365590
0.361680
0.358750
0.356790
0.354840
0.353860
0.352880
0.350930
0.349950
0.348970
0.348000
0.346040
0.343110
0.341150
0.339200
0.338220
0.338220
0.339200
0.340180
0.340180
0.339200
0.339200
0.338220
0.338220
0.336270
0.335290
0.334310
0.335290
0.342130
0.354840
0.376340
0.406650
0.444770
0.487780
0.526880
0.561090
0.597260
0.629520
0.654940
0.672530
0.684260
0.690130
0.692080
0.690130
0.686220
0.681330
0.675460
0.669600
0.664710
0.660800
0.657870
0.655910
0.654940
0.653960
0.653960
0.652000
0.651030
0.650050
0.647120
0.644180
0.638320
0.632450
0.624630
0.614860
0.603130
0.590420
0.575760
0.560120
0.543500
0.527860
0.513200
0.501470
0.490710
0.479960
0.470190
0.462370
0.456500
0.452590
0.449660
0.447700
0.445750
0.443790
0.441840
0.438910
0.435970
0.433040
0.430110
0.427170
0.422290
0.418380
0.413490
0.409580
0.405670
0.401760
0.396870
0.391010
0.386120
0.382210
0.377320
0.372430
0.368520
0.365590
0.361680
0.358750
0.356790
0.354840
0.352880
0.349950
0.347020
0.346040
0.346040
0.344090
0.343110
0.341150
0.340180
0.338220
0.337240
0.335290
0.333330
0.332360
0.329420
0.327470
0.326490
0.325510
0.327470
0.332360
0.345060
0.365590
0.394920
0.431090
0.473120
0.517110
0.560120
0.598240
0.627570
0.648090
0.665690
0.678400
0.684260
0.687190
0.686220
0.682310
0.678400
0.674490
0.671550
0.668620
0.664710
0.660800
0.658850
0.657870
0.656890
0.655910
0.652980
0.652000
0.649070
0.645160
0.640270
0.633430
0.626590
0.618770
0.608990
0.597260
0.584560
0.570870
0.556210
0.540570
0.524930
0.508310
0.492670
0.477030
0.464320
0.454550
0.447700
0.440860
0.435970
0.433040
0.430110
0.428150
0.426200
0.424240
0.421310
0.417400
0.413490
0.409580
0.406650
0.402740
0.399800
0.396870
0.393940
0.390030
0.387100
0.383190
0.379280
0.375370
0.370480
0.366570
0.364610
0.361680
0.359730
0.356790
0.354840
0.352880
0.351910
0.348970
0.347020
0.344090
0.341150
0.338220
0.336270
0.336270
0.335290
0.333330
0.332360
0.330400
0.329420
0.327470
0.324540
0.322580
0.319650
0.317690
0.317690
0.319650
0.325510
0.332360
0.344090
0.367550
0.401760
0.441840
0.485830
0.530790
0.571850
0.607040
0.635390
0.653960
0.665690
0.674490
0.679370
0.679370
0.676440
0.671550
0.666670
0.660800
0.656890
0.653960
0.652000
0.652980
0.652980
0.652980
0.653960
0.654940
0.654940
0.652980
0.649070
0.645160
0.639300
0.632450
0.622680
0.611930
0.602150
0.590420
0.575760
0.559140
0.541540
0.522970
0.506350
0.488760
0.472140
0.458460
0.447700
0.438910
0.433040
0.429130
0.427170
0.425220
0.423260
0.421310
0.419350
0.416420
0.413490
0.410560
0.406650
0.401760
0.397850
0.394920
0.391980
0.388070
0.383190
0.378300
0.373410
0.368520
0.363640
0.358750
0.354840
0.350930
0.346040
0.342130
0.339200
0.336270
0.333330
0.329420
0.326490
0.323560
0.320630
0.317690
0.314760
0.312810
0.310850
0.309870
0.308900
0.307920
0.306940
0.305960
0.304010
0.302050
0.300100
0.296190
0.292280
0.290320
0.291300
0.297170
0.310850
0.329420
0.353860
0.388070
0.429130
0.476050
0.524930
0.569890
0.608020
0.639300
0.660800
0.675460
0.683280
0.686220
0.684260
0.680350
0.674490
0.668620
0.662760
0.658850
0.655910
0.653960
0.652980
0.652980
0.652980
0.652000
0.651030
0.649070
0.647120
0.644180
0.639300
0.633430
0.625610
0.614860
0.604110
0.590420
0.576740
0.560120
0.544480
0.529810
0.513200
0.496580
0.480940
0.466280
0.453570
0.442820
0.435000
0.428150
0.422290
0.417400
0.415440
0.413490
0.411530
0.409580
0.407620
0.405670
0.401760
0.397850
0.393940
0.390030
0.387100
0.383190
0.380250
0.377320
0.373410
0.369500
0.365590
0.361680
0.357770
0.354840
0.350930
0.348000
0.345060
0.343110
0.340180
0.339200
0.339200
0.337240
0.336270
0.334310
0.333330
0.331380
0.329420
0.327470
0.326490
0.324540
0.322580
0.320630
0.320630
0.319650
0.318670
0.316720
0.314760
0.312810
0.311830
0.312810
0.317690
0.330400
0.350930
0.382210
0.415440
0.451610
0.494620
0.539590
0.583580
0.620720
0.651030
0.673510
0.689150
0.696970
0.699900
0.698920
0.695990
0.691100
0.685240
0.679370
0.675460
0.671550
0.669600
0.668620
0.667640
0.667640
0.665690
0.663730
0.661780
0.658850
0.655910
0.652000
0.648090
0.643210
0.636360
0.627570
0.615840
0.603130
0.587490
0.570870
0.553270
0.534700
0.518080
0.503420
0.487780
0.473120
0.461390
0.451610
0.443790
0.438910
0.435000
0.433040
0.430110
0.428150
0.427170
0.426200
0.424240
0.420330
0.415440
0.410560
0.405670
0.400780
0.396870
0.393940
0.391010
0.388070
0.383190
0.379280
0.375370
0.371460
0.366570
0.361680
0.357770
0.352880
0.348970
0.346040
0.344090
0.342130
0.340180
0.339200
0.339200
0.338220
0.336270
0.333330
0.331380
0.329420
0.327470
0.325510
0.324540
0.323560
0.321600
0.320630
0.319650
0.319650
0.318670
0.317690
0.317690
0.321600
0.330400
0.346040
0.371460
0.404690
0.444770
0.487780
0.525900
0.561090
0.596290
0.628540
0.654940
0.674490
0.687190
0.694040
0.695990
0.693060
0.689150
0.683280
0.677420
0.671550
0.665690
0.660800
0.657870
0.654940
0.653960
0.652980
0.652000
0.652000
0.650050
0.649070
0.647120
0.643210
0.638320
0.632450
0.624630
0.613880
0.601170
0.586510
0.568910
0.549360
0.529810
0.510260
0.492670
0.477030
0.465300
0.455520
0.447700
0.440860
0.435970
0.433040
0.430110
0.429130
0.428150
0.426200
0.424240
0.421310
0.418380
0.414470
0.410560
0.405670
0.400780
0.396870
0.392960
0.389050
0.386120
0.382210
0.378300
0.374390
0.370480
0.366570
0.363640
0.358750
0.353860
0.348970
0.345060
0.341150
0.338220
0.336270
0.334310
0.332360
0.330400
0.329420
0.329420
0.328450
0.326490
0.325510
0.323560
0.322580
0.320630
0.317690
0.313780
0.309870
0.304990
0.302050
0.301080
0.299120
0.300100
0.304010
0.314760
0.335290
0.362660
0.398830
0.440860
0.486800
0.532750
0.574780
0.608020
0.632450
0.653960
0.669600
0.679370
0.684260
0.685240
0.683280
0.680350
0.676440
0.672530
0.668620
0.664710
0.660800
0.657870
0.655910
0.654940
0.653960
0.652000
0.651030
0.649070
0.647120
0.644180
0.639300
0.633430
0.625610
0.616810
0.606060
0.592380
0.576740
0.560120
0.542520
0.525900
0.508310
0.491690
0.476050
0.462370
0.453570
0.446730
0.440860
0.435970
0.432060
0.429130
0.426200
0.424240
0.421310
0.418380
0.414470
0.410560
0.406650
0.402740
0.398830
0.394920
0.390030
0.383190
0.378300
0.373410
0.367550
0.363640
0.359730
0.356790
0.352880
0.348970
0.347020
0.344090
0.341150
0.337240
0.333330
0.330400
0.327470
0.325510
0.324540
0.322580
0.320630
0.318670
0.317690
0.317690
0.316720
0.315740
0.313780
0.311830
0.310850
0.308900
0.306940
0.304990
0.303030
0.300100
0.299120
0.301080
0.306940
0.319650
0.339200
0.368520
0.405670
0.447700
0.492670
0.537630
0.577710
0.612900
0.640270
0.658850
0.669600
0.677420
0.680350
0.680350
0.677420
0.672530
0.667640
0.661780
0.657870
0.654940
0.652980
0.651030
0.648090
0.646140
0.642230
0.636360
0.633430
0.630500
0.626590
0.622680
0.617790
0.610950
0.603130
0.594330
0.585530
0.574780
0.562070
0.546430
0.529810
0.513200
0.496580
0.480940
0.466280
0.454550
0.445750
0.439880
0.435970
0.433040
0.431090
0.429130
0.428150
0.427170
0.426200
0.424240
0.423260
0.420330
0.416420
0.412510
0.408600
0.405670
0.403710
0.400780
0.397850
0.393940
0.389050
0.385140
0.380250
0.376340
0.372430
0.369500
0.365590
0.363640
0.361680
0.359730
0.357770
0.355820
0.352880
0.350930
0.348970
0.347020
0.345060
0.344090
0.342130
0.340180
0.340180
0.340180
0.339200
0.338220
0.337240
0.335290
0.331380
0.327470
0.323560
0.320630
0.320630
0.324540
0.333330
0.347020
0.369500
0.400780
0.438910
0.481920
0.525900
0.567940
0.605080
0.636360
0.659820
0.674490
0.683280
0.687190
0.687190
0.685240
0.682310
0.678400
0.674490
0.670580
0.667640
0.664710
0.662760
0.661780
0.661780
0.660800
0.658850
0.656890
0.654940
0.651030
0.647120
0.643210
0.636360
0.628540
0.618770
0.606060
0.592380
0.577710
0.564030
0.548390
0.532750
0.517110
0.502440
0.488760
0.477030
0.466280
0.457480
0.451610
0.445750
0.441840
0.437930
0.435970
0.433040
0.430110
0.427170
0.424240
0.421310
0.416420
0.412510
0.408600
0.404690
0.401760
0.398830
0.396870
0.393940
0.391010
0.387100
0.382210
0.377320
0.372430
0.368520
0.363640
0.360700
0.358750
0.356790
0.355820
0.354840
0.353860
0.353860
0.352880
0.352880
0.351910
0.350930
0.348970
0.346040
0.343110
0.340180
0.338220
0.337240
0.335290
0.334310
0.333330
0.332360
0.331380
0.329420
0.328450
0.328450
0.332360
0.341150
0.357770
0.378300
0.402740
0.436950
0.477030
0.519060
0.560120
0.595310
0.624630
0.648090
0.663730
0.674490
0.679370
0.680350
0.679370
0.676440
0.671550
0.667640
0.662760
0.658850
0.655910
0.652000
0.649070
0.646140
0.645160
0.643210
0.641250
0.639300
0.637340
0.634410
0.630500
0.624630
0.616810
0.608990
0.599220
0.587490
0.572830
0.558160
0.543500
0.528840
0.513200
0.497560
0.482890
0.470190
0.460410
0.452590
0.446730
0.442820
0.439880
0.437930
0.435970
0.435000
0.433040
0.429130
0.425220
0.421310
0.417400
0.412510
0.408600
0.404690
0.401760
0.397850
0.394920
0.392960
0.390030
0.387100
0.383190
0.378300
0.373410
0.368520
0.363640
0.358750
0.355820
0.352880
0.349950
0.348970
0.348000
0.347020
0.346040
0.345060
0.343110
0.342130
0.340180
0.339200
0.337240
0.334310
0.329420
0.325510
0.323560
0.322580
0.321600
0.320630
0.318670
0.317690
0.316720
0.316720
0.321600
0.332360
0.350930
0.378300
0.413490
0.448680
0.483870
0.523950
0.562070
0.596290
0.625610
0.648090
0.663730
0.674490
0.679370
0.679370
0.676440
0.671550
0.666670
0.660800
0.655910
0.651030
0.648090
0.644180
0.641250
0.640270
0.638320
0.637340
0.635390
0.634410
0.631480
0.628540
0.623660
0.616810
0.608990
0.598240
0.587490
0.573800
0.559140
0.543500
0.526880
0.510260
0.495600
0.482890
0.470190
0.457480
0.447700
0.439880
0.433040
0.427170
0.423260
0.419350
0.416420
0.413490
0.411530
0.409580
0.407620
0.404690
0.401760
0.397850
0.394920
0.391980
0.389050
0.386120
0.382210
0.378300
0.374390
0.370480
0.366570
0.362660
0.357770
0.353860
0.349950
0.347020
0.344090
0.342130
0.341150
0.339200
0.337240
0.337240
0.336270
0.335290
0.332360
0.330400
0.328450
0.326490
0.325510
0.323560
0.322580
0.320630
0.318670
0.315740
0.312810
0.310850
0.307920
0.304990
0.304990
0.306940
0.313780
0.327470
0.348970
0.379280
0.416420
0.458460
0.496580
0.531770
0.567940
0.601170
0.628540
0.649070
0.662760
0.670580
0.673510
0.671550
0.667640
0.662760
0.656890
0.652000
0.647120
0.643210
0.640270
0.638320
0.636360
0.637340
0.637340
0.636360
0.635390
0.633430
0.629520
0.624630
0.618770
0.610950
0.602150
0.593350
0.582600
0.569890
0.556210
0.541540
0.525900
0.510260
0.495600
0.482890
0.472140
0.463340
0.455520
0.448680
0.442820
0.438910
0.435000
0.432060
0.430110
0.428150
0.427170
0.425220
0.424240
0.422290
0.420330
0.416420
0.412510
0.407620
0.401760
0.396870
0.391980
0.387100
0.382210
0.379280
0.375370
0.373410
0.371460
0.368520
0.365590
0.362660
0.358750
0.354840
0.351910
0.348970
0.345060
0.342130
0.340180
0.338220
0.338220
0.337240
0.336270
0.335290
0.334310
0.332360
0.331380
0.329420
0.328450
0.326490
0.325510
0.323560
0.322580
0.322580
0.322580
0.326490
0.336270
0.352880
0.379280
0.414470
0.454550
0.498530
0.542520
0.582600
0.613880
0.637340
0.657870
0.673510
0.681330
0.685240
0.683280
0.680350
0.674490
0.668620
0.662760
0.656890
0.652980
0.649070
0.646140
0.644180
0.643210
0.643210
0.641250
0.639300
0.637340
0.634410
0.630500
0.625610
0.617790
0.609970
0.601170
0.589440
0.575760
0.561090
0.545450
0.528840
0.513200
0.498530
0.484850
0.472140
0.460410
0.450640
0.443790
0.437930
0.434020
0.431090
0.431090
0.430110
0.429130
0.427170
0.425220
0.421310
0.418380
0.415440
0.412510
0.410560
0.407620
0.404690
0.400780
0.397850
0.393940
0.389050
0.386120
0.382210
0.379280
0.375370
0.371460
0.368520
0.365590
0.362660
0.359730
0.357770
0.355820
0.352880
0.350930
0.348970
0.347020
0.346040
0.343110
0.341150
0.340180
0.339200
0.338220
0.336270
0.335290
0.333330
0.332360
0.329420
0.325510
0.321600
0.317690
0.316720
0.316720
0.320630
0.330400
0.348000
0.374390
0.408600
0.448680
0.490710
0.533720
0.571850
0.605080
0.629520
0.646140
0.655910
0.661780
0.663730
0.663730
0.660800
0.655910
0.652000
0.648090
0.643210
0.640270
0.638320
0.636360
0.634410
0.634410
0.634410
0.634410
0.633430
0.631480
0.628540
0.622680
0.616810
0.608990
0.600200
0.591400
0.581620
0.570870
0.559140
0.545450
0.529810
0.515150
0.499510
0.485830
0.472140
0.461390
0.452590
0.445750
0.440860
0.437930
0.435000
0.433040
0.430110
0.427170
0.424240
0.421310
0.418380
0.413490
0.409580
0.406650
0.403710
0.400780
0.398830
0.396870
0.392960
0.388070
0.383190
0.378300
0.373410
0.369500
0.366570
0.363640
0.361680
0.360700
0.359730
0.358750
0.355820
0.353860
0.351910
0.349950
0.348970
0.347020
0.346040
0.344090
0.343110
0.341150
0.340180
0.340180
0.339200
0.338220
0.336270
0.335290
0.332360
0.330400
0.328450
0.326490
0.326490
0.328450
0.335290
0.346040
0.364610
0.391010
0.425220
0.464320
0.505380
0.545450
0.582600
0.612900
0.636360
0.652980
0.664710
0.669600
0.671550
0.670580
0.667640
0.663730
0.657870
0.652980
0.649070
0.645160
0.641250
0.638320
0.636360
0.634410
0.632450
0.630500
0.628540
0.626590
0.622680
0.618770
0.612900
0.606060
0.597260
0.587490
0.575760
0.562070
0.549360
0.536660
0.521020
0.505380
0.489740
0.475070
0.462370
0.451610
0.442820
0.435970
0.431090
0.427170
0.425220
0.423260
0.421310
0.420330
0.418380
0.415440
0.411530
0.408600
0.404690
0.401760
0.398830
0.395890
0.392960
0.390030
0.388070
0.386120
0.382210
0.377320
0.372430
0.367550
0.362660
0.358750
0.355820
0.351910
0.349950
0.348000
0.348000
0.346040
0.343110
0.341150
0.340180
0.338220
0.337240
0.335290
0.334310
0.332360
0.331380
0.329420
0.328450
0.328450
0.327470
0.325510
0.322580
0.318670
0.315740
0.314760
0.314760
0.319650
0.331380
0.350930
0.374390
0.401760
0.438910
0.479960
0.522970
0.564030
0.599220
0.627570
0.647120
0.659820
0.668620
0.674490
0.675460
0.671550
0.666670
0.660800
0.654940
0.651030
0.648090
0.647120
0.646140
0.646140
0.646140
0.646140
0.646140
0.644180
0.642230
0.640270
0.636360
0.632450
0.627570
0.620720
0.611930
0.602150
0.590420
0.576740
0.561090
0.547410
0.532750
0.517110
0.502440
0.488760
0.476050
0.466280
0.457480
0.451610
0.446730
0.443790
0.440860
0.438910
0.437930
0.435970
0.434020
0.430110
0.426200
0.421310
0.417400
0.413490
0.410560
0.407620
0.404690
0.400780
0.397850
0.394920
0.391010
0.386120
0.382210
0.378300
0.375370
0.371460
0.367550
0.364610
0.361680
0.359730
0.357770
0.356790
0.356790
0.355820
0.355820
0.355820
0.354840
0.353860
0.352880
0.350930
0.349950
0.348000
0.347020
0.346040
0.346040
0.345060
0.343110
0.341150
0.339200
0.338220
0.339200
0.345060
0.357770
0.378300
0.407620
0.443790
0.479960
0.514170
0.552300
0.589440
0.621700
0.647120
0.665690
0.677420
0.683280
0.685240
0.684260
0.681330
0.676440
0.671550
0.667640
0.663730
0.660800
0.656890
0.653960
0.651030
0.648090
0.646140
0.643210
0.640270
0.636360
0.632450
0.628540
0.622680
0.616810
0.608990
0.600200
0.590420
0.578690
0.565000
0.549360
0.533720
0.518080
0.505380
0.494620
0.482890
0.472140
0.462370
0.455520
0.449660
0.444770
0.441840
0.439880
0.437930
0.435970
0.434020
0.433040
0.431090
0.428150
0.424240
0.420330
0.415440
0.411530
0.407620
0.403710
0.400780
0.396870
0.391980
0.389050
0.386120
0.382210
0.378300
0.374390
0.370480
0.366570
0.362660
0.359730
0.356790
0.353860
0.351910
0.349950
0.348970
0.348970
0.348000
0.346040
0.345060
0.343110
0.340180
0.338220
0.336270
0.334310
0.333330
0.331380
0.330400
0.330400
0.329420
0.328450
0.327470
0.329420
0.337240
0.351910
0.373410
0.403710
0.439880
0.480940
0.521990
0.557180
0.586510
0.613880
0.637340
0.654940
0.666670
0.673510
0.676440
0.675460
0.671550
0.667640
0.661780
0.655910
0.652000
0.648090
0.646140
0.645160
0.645160
0.644180
0.643210
0.642230
0.640270
0.638320
0.635390
0.630500
0.625610
0.618770
0.610950
0.601170
0.588470
0.574780
0.559140
0.543500
0.526880
0.510260
0.494620
0.479960
0.468230
0.459430
0.451610
0.445750
0.440860
0.436950
0.435000
0.433040
0.431090
0.428150
0.424240
0.420330
0.416420
0.413490
0.410560
0.407620
0.404690
0.401760
0.399800
0.397850
0.394920
0.391980
0.389050
0.385140
0.381230
0.378300
0.375370
0.371460
0.366570
0.360700
0.352880
0.348970
0.346040
0.344090
0.342130
0.340180
0.338220
0.337240
0.335290
0.332360
0.329420
0.327470
0.325510
0.324540
0.322580
0.320630
0.319650
0.317690
0.314760
0.311830
0.310850
0.310850
0.311830
0.314760
0.323560
0.340180
0.364610
0.395890
0.435000
0.477030
0.521020
0.563050
0.594330
0.618770
0.639300
0.653960
0.662760
0.667640
0.668620
0.666670
0.662760
0.657870
0.652980
0.648090
0.644180
0.641250
0.638320
0.636360
0.634410
0.633430
0.631480
0.629520
0.628540
0.626590
0.623660
0.618770
0.611930
0.604110
0.595310
0.584560
0.570870
0.556210
0.539590
0.522970
0.506350
0.490710
0.476050
0.463340
0.451610
0.442820
0.435970
0.431090
0.427170
0.423260
0.419350
0.416420
0.412510
0.408600
0.405670
0.401760
0.399800
0.397850
0.395890
0.393940
0.391980
0.389050
0.386120
0.383190
0.379280
0.374390
0.369500
0.363640
0.358750
0.353860
0.349950
0.348000
0.347020
0.344090
0.342130
0.340180
0.338220
0.337240
0.335290
0.333330
0.332360
0.330400
0.328450
0.328450
0.327470
0.326490
0.325510
0.323560
0.322580
0.320630
0.319650
0.317690
0.315740
0.312810
0.310850
0.309870
0.311830
0.318670
0.331380
0.353860
0.385140
0.424240
0.467250
0.513200
0.556210
0.593350
0.624630
0.648090
0.662760
0.671550
0.676440
0.678400
0.676440
0.672530
0.667640
0.661780
0.655910
0.651030
0.647120
0.644180
0.641250
0.639300
0.638320
0.638320
0.637340
0.636360
0.635390
0.632450
0.627570
0.621700
0.613880
0.604110
0.594330
0.582600
0.570870
0.557180
0.541540
0.524930
0.508310
0.491690
0.477030
0.464320
0.453570
0.445750
0.439880
0.435000
0.433040
0.431090
0.430110
0.428150
0.426200
0.424240
0.422290
0.418380
0.414470
0.410560
0.405670
0.401760
0.398830
0.396870
0.393940
0.391010
0.388070
0.384160
0.381230
0.378300
0.375370
0.372430
0.368520
0.365590
0.362660
0.360700
0.358750
0.355820
0.352880
0.349950
0.348000
0.346040
0.344090
0.342130
0.340180
0.338220
0.336270
0.336270
0.335290
0.334310
0.333330
0.331380
0.328450
0.326490
0.324540
0.322580
0.322580
0.325510
0.333330
0.344090
0.361680
0.389050
0.424240
0.465300
0.510260
0.553270
0.591400
0.622680
0.646140
0.661780
0.671550
0.676440
0.676440
0.673510
0.668620
0.662760
0.655910
0.650050
0.645160
0.641250
0.639300
0.638320
0.639300
0.640270
0.640270
0.640270
0.638320
0.637340
0.635390
0.630500
0.624630
0.615840
0.606060
0.595310
0.583580
0.569890
0.557180
0.544480
0.530790
0.516130
0.501470
0.486800
0.473120
0.461390
0.452590
0.446730
0.441840
0.438910
0.435970
0.434020
0.431090
0.428150
0.425220
0.421310
0.417400
0.414470
0.409580
0.405670
0.402740
0.398830
0.395890
0.392960
0.390030
0.387100
0.384160
0.380250
0.375370
0.371460
0.366570
0.361680
0.357770
0.354840
0.352880
0.350930
0.350930
0.350930
0.349950
0.348970
0.347020
0.345060
0.343110
0.341150
0.340180
0.338220
0.336270
0.335290
0.333330
0.332360
0.332360
0.331380
0.330400
0.327470
0.325510
0.323560
0.324540
0.329420
0.342130
0.363640
0.392960
0.423260
0.455520
0.494620
0.534700
0.572830
0.607040
0.634410
0.654940
0.668620
0.676440
0.678400
0.677420
0.674490
0.669600
0.664710
0.658850
0.652980
0.649070
0.646140
0.644180
0.642230
0.641250
0.639300
0.637340
0.635390
0.632450
0.628540
0.624630
0.618770
0.611930
0.604110
0.594330
0.583580
0.569890
0.555230
0.538610
0.521990
0.506350
0.492670
0.479960
0.468230
0.457480
0.448680
0.441840
0.435970
0.432060
0.429130
0.427170
0.425220
0.423260
0.421310
0.419350
0.417400
0.414470
0.411530
0.407620
0.404690
0.400780
0.397850
0.393940
0.390030
0.385140
0.380250
0.376340
0.373410
0.370480
0.365590
0.361680
0.357770
0.353860
0.351910
0.349950
0.348000
0.346040
0.344090
0.344090
0.343110
0.342130
0.341150
0.339200
0.338220
0.336270
0.333330
0.331380
0.329420
0.327470
0.325510
0.323560
0.322580
0.321600
0.319650
0.318670
0.319650
0.324540
0.335290
0.353860
0.380250
0.413490
0.453570
0.494620
0.530790
0.563050
0.593350
0.619750
0.639300
0.653960
0.661780
0.664710
0.664710
0.661780
0.658850
0.653960
0.650050
0.646140
0.643210
0.641250
0.638320
0.636360
0.634410
0.633430
0.631480
0.629520
0.627570
0.623660
0.619750
0.613880
0.608020
0.600200
0.590420
0.579670
0.566960
0.552300
0.536660
0.520040
0.504400
0.489740
0.475070
0.464320
0.455520
0.447700
0.439880
0.434020
0.429130
0.425220
0.422290
0.419350
0.416420
0.413490
0.409580
0.406650
0.404690
0.402740
0.399800
0.396870
0.393940
0.391010
0.388070
0.384160
0.381230
0.378300
0.374390
0.370480
0.366570
0.362660
0.357770
0.354840
0.350930
0.348000
0.345060
0.343110
0.341150
0.340180
0.338220
0.337240
0.336270
0.335290
0.336270
0.336270
0.335290
0.334310
0.333330
0.331380
0.330400
0.328450
0.327470
0.325510
0.323560
0.323560
0.323560
0.327470
0.335290
0.349950
0.372430
0.403710
0.442820
0.485830
0.530790
0.574780
0.612900
0.644180
0.664710
0.677420
0.686220
0.690130
0.689150
0.685240
0.680350
0.674490
0.667640
0.661780
0.656890
0.652980
0.651030
0.649070
0.648090
0.648090
0.647120
0.646140
0.644180
0.641250
0.637340
0.632450
0.626590
0.619750
0.611930
0.603130
0.593350
0.580650
0.565980
0.549360
0.532750
0.516130
0.499510
0.484850
0.472140
0.460410
0.452590
0.446730
0.441840
0.438910
0.435970
0.434020
0.433040
0.432060
0.430110
0.429130
0.427170
0.426200
0.424240
0.422290
0.420330
0.417400
0.413490
0.407620
0.402740
0.396870
0.392960
0.388070
0.384160
0.379280
0.375370
0.371460
0.367550
0.364610
0.361680
0.358750
0.355820
0.352880
0.350930
0.348970
0.347020
0.345060
0.344090
0.342130
0.340180
0.340180
0.339200
0.338220
0.337240
0.335290
0.334310
0.331380
0.328450
0.326490
0.325510
0.325510
0.331380
0.340180
0.353860
0.375370
0.406650
0.443790
0.484850
0.527860
0.568910
0.606060
0.636360
0.658850
0.674490
0.683280
0.687190
0.687190
0.685240
0.681330
0.676440
0.670580
0.665690
0.660800
0.656890
0.654940
0.652980
0.652980
0.651030
0.650050
0.648090
0.645160
0.642230
0.637340
0.632450
0.625610
0.617790
0.608020
0.596290
0.583580
0.568910
0.555230
0.542520
0.526880
0.511240
0.496580
0.483870
0.470190
0.458460
0.448680
0.440860
0.434020
0.429130
0.426200
0.424240
0.422290
0.421310
0.419350
0.417400
0.416420
0.414470
0.411530
0.407620
0.402740
0.397850
0.392960
0.389050
0.385140
0.380250
0.376340
0.372430
0.368520
0.365590
0.362660
0.358750
0.355820
0.351910
0.349950
0.348000
0.348000
0.346040
0.345060
0.343110
0.342130
0.340180
0.339200
0.338220
0.337240
0.335290
0.334310
0.333330
0.332360
0.331380
0.330400
0.329420
0.327470
0.325510
0.325510
0.326490
0.333330
0.346040
0.367550
0.396870
0.428150
0.460410
0.500490
0.542520
0.582600
0.616810
0.644180
0.664710
0.678400
0.686220
0.689150
0.688170
0.684260
0.679370
0.673510
0.667640
0.661780
0.655910
0.652000
0.649070
0.648090
0.648090
0.648090
0.648090
0.647120
0.645160
0.643210
0.639300
0.633430
0.626590
0.617790
0.608020
0.595310
0.581620
0.566960
0.550340
0.532750
0.518080
0.504400
0.490710
0.477030
0.465300
0.456500
0.448680
0.443790
0.440860
0.437930
0.435970
0.434020
0.432060
0.431090
0.430110
0.428150
0.425220
0.421310
0.417400
0.412510
0.407620
0.403710
0.398830
0.393940
0.386120
0.378300
0.372430
0.367550
0.361680
0.356790
0.351910
0.348000
0.345060
0.342130
0.340180
0.338220
0.336270
0.334310
0.333330
0.333330
0.332360
0.329420
0.327470
0.324540
0.321600
0.318670
0.316720
0.314760
0.312810
0.310850
0.308900
0.306940
0.304010
0.302050
0.301080
0.303030
0.311830
0.328450
0.352880
0.386120
0.425220
0.469210
0.514170
0.552300
0.583580
0.611930
0.635390
0.652980
0.664710
0.670580
0.672530
0.670580
0.666670
0.661780
0.655910
0.651030
0.646140
0.642230
0.640270
0.638320
0.636360
0.635390
0.634410
0.632450
0.630500
0.627570
0.623660
0.617790
0.610950
0.603130
0.594330
0.583580
0.571850
0.558160
0.543500
0.526880
0.510260
0.494620
0.478010
0.463340
0.451610
0.443790
0.435970
0.429130
0.423260
0.418380
0.415440
0.412510
0.410560
0.409580
0.406650
0.403710
0.399800
0.395890
0.392960
0.390030
0.387100
0.384160
0.380250
0.377320
0.373410
0.368520
0.363640
0.359730
0.356790
0.353860
0.351910
0.348970
0.346040
0.343110
0.340180
0.338220
0.336270
0.334310
0.332360
0.331380
0.330400
0.330400
0.330400
0.330400
0.330400
0.331380
0.332360
0.332360
0.332360
0.331380
0.330400
0.328450
0.326490
0.324540
0.325510
0.329420
0.338220
0.355820
0.381230
0.414470
0.454550
0.498530
0.543500
0.586510
0.623660
0.652980
0.673510
0.685240
0.693060
0.695990
0.695010
0.691100
0.686220
0.680350
0.674490
0.670580
0.667640
0.665690
0.665690
0.663730
0.661780
0.659820
0.656890
0.653960
0.651030
0.647120
0.642230
0.637340
0.630500
0.623660
0.613880
0.605080
0.595310
0.582600
0.568910
0.554250
0.538610
0.521990
0.506350
0.490710
0.477030
0.465300
0.456500
0.448680
0.443790
0.440860
0.438910
0.436950
0.435000
0.433040
0.432060
0.430110
0.428150
0.425220
0.421310
0.416420
0.412510
0.408600
0.403710
0.396870
0.391980
0.388070
0.384160
0.380250
0.377320
0.374390
0.370480
0.367550
0.362660
0.359730
0.356790
0.352880
0.348970
0.345060
0.341150
0.337240
0.335290
0.333330
0.331380
0.329420
0.328450
0.327470
0.327470
0.326490
0.325510
0.324540
0.322580
0.320630
0.319650
0.318670
0.318670
0.322580
0.331380
0.348970
0.369500
0.394920
0.429130
0.471160
0.516130
0.561090
0.601170
0.634410
0.660800
0.679370
0.690130
0.695990
0.696970
0.694040
0.690130
0.684260
0.678400
0.673510
0.668620
0.664710
0.661780
0.659820
0.658850
0.657870
0.655910
0.652000
0.649070
0.645160
0.641250
0.637340
0.629520
0.618770
0.608020
0.596290
0.582600
0.567940
0.552300
0.537630
0.523950
0.509290
0.494620
0.480940
0.468230
0.457480
0.448680
0.441840
0.436950
0.434020
0.431090
0.429130
0.428150
0.427170
0.426200
0.424240
0.423260
0.420330
0.417400
0.413490
0.409580
0.404690
0.400780
0.395890
0.393940
0.391010
0.387100
0.384160
0.380250
0.377320
0.374390
0.371460
0.367550
0.363640
0.359730
0.355820
0.351910
0.349950
0.348970
0.348000
0.346040
0.345060
0.343110
0.342130
0.341150
0.340180
0.340180
0.339200
0.338220
0.338220
0.337240
0.335290
0.331380
0.328450
0.327470
0.329420
0.337240
0.351910
0.374390
0.404690
0.440860
0.480940
0.516130
0.548390
0.580650
0.609970
0.635390
0.652980
0.664710
0.671550
0.673510
0.672530
0.668620
0.663730
0.658850
0.653960
0.649070
0.646140
0.644180
0.642230
0.640270
0.639300
0.637340
0.634410
0.631480
0.629520
0.625610
0.621700
0.616810
0.610950
0.603130
0.594330
0.583580
0.569890
0.555230
0.539590
0.522970
0.506350
0.490710
0.478010
0.468230
0.458460
0.450640
0.443790
0.438910
0.435970
0.433040
0.431090
0.429130
0.428150
0.426200
0.425220
0.423260
0.420330
0.416420
0.412510
0.407620
0.402740
0.397850
0.392960
0.388070
0.384160
0.379280
0.375370
0.371460
0.369500
0.366570
0.363640
0.359730
0.355820
0.352880
0.349950
0.347020
0.344090
0.342130
0.339200
0.337240
0.336270
0.335290
0.334310
0.332360
0.331380
0.329420
0.328450
0.326490
0.325510
0.323560
0.320630
0.318670
0.316720
0.317690
0.320630
0.328450
0.342130
0.362660
0.391010
0.427170
0.469210
0.512220
0.554250
0.590420
0.618770
0.638320
0.654940
0.665690
0.671550
0.672530
0.671550
0.667640
0.663730
0.658850
0.654940
0.652000
0.648090
0.645160
0.641250
0.639300
0.637340
0.635390
0.632450
0.630500
0.627570
0.623660
0.618770
0.612900
0.605080
0.596290
0.586510
0.575760
0.562070
0.547410
0.531770
0.515150
0.498530
0.482890
0.468230
0.455520
0.445750
0.437930
0.433040
0.430110
0.428150
0.426200
0.424240
0.423260
0.421310
0.420330
0.418380
0.416420
0.412510
0.408600
0.405670
0.401760
0.397850
0.394920
0.391010
0.387100
0.383190
0.379280
0.376340
0.372430
0.369500
0.366570
0.363640
0.361680
0.359730
0.356790
0.353860
0.351910
0.349950
0.348000
0.348000
0.347020
0.347020
0.346040
0.344090
0.344090
0.343110
0.342130
0.341150
0.340180
0.338220
0.336270
0.333330
0.330400
0.329420
0.329420
0.335290
0.348000
0.364610
0.387100
0.419350
0.459430
0.503420
0.548390
0.591400
0.628540
0.656890
0.677420
0.690130
0.695990
0.695990
0.693060
0.689150
0.683280
0.677420
0.672530
0.668620
0.664710
0.661780
0.659820
0.658850
0.659820
0.660800
0.660800
0.659820
0.659820
0.657870
0.653960
0.648090
0.641250
0.632450
0.622680
0.610950
0.597260
0.581620
0.566960
0.553270
0.537630
0.521990
0.507330
0.493650
0.482890
0.472140
0.464320
0.456500
0.450640
0.445750
0.442820
0.440860
0.438910
0.436950
0.434020
0.430110
0.426200
0.421310
0.417400
0.412510
0.407620
0.403710
0.398830
0.395890
0.393940
0.391010
0.388070
0.385140
0.381230
0.378300
0.374390
0.370480
0.366570
0.362660
0.357770
0.354840
0.351910
0.349950
0.348000
0.346040
0.344090
0.343110
0.341150
0.339200
0.338220
0.336270
0.335290
0.333330
0.332360
0.332360
0.330400
0.328450
0.326490
0.324540
0.324540
0.328450
0.339200
0.357770
0.385140
0.420330
0.455520
0.490710
0.530790
0.570870
0.608020
0.638320
0.661780
0.676440
0.685240
0.688170
0.687190
0.683280
0.678400
0.674490
0.669600
0.666670
0.662760
0.660800
0.658850
0.658850
0.657870
0.657870
0.655910
0.653960
0.650050
0.645160
0.640270
0.633430
0.626590
0.617790
0.607040
0.596290
0.583580
0.568910
0.554250
0.537630
0.521020
0.504400
0.490710
0.478010
0.466280
0.455520
0.447700
0.440860
0.436950
0.434020
0.432060
0.430110
0.428150
0.427170
0.425220
0.424240
0.421310
0.417400
0.413490
0.409580
0.404690
0.399800
0.394920
0.390030
0.386120
0.382210
0.377320
0.374390
0.372430
0.369500
0.366570
0.363640
0.359730
0.355820
0.351910
0.348970
0.345060
0.342130
0.339200
0.338220
0.337240
0.336270
0.334310
0.333330
0.331380
0.330400
0.328450
0.327470
0.325510
0.323560
0.321600
0.319650
0.317690
0.316720
0.316720
0.320630
0.328450
0.345060
0.368520
0.400780
0.438910
0.481920
0.524930
0.565000
0.596290
0.621700
0.643210
0.659820
0.670580
0.676440
0.677420
0.676440
0.673510
0.670580
0.666670
0.662760
0.659820
0.655910
0.653960
0.652980
0.652000
0.650050
0.648090
0.645160
0.641250
0.637340
0.633430
0.628540
0.623660
0.617790
0.609970
0.600200
0.588470
0.574780
0.560120
0.543500
0.526880
0.511240
0.495600
0.481920
0.469210
0.457480
0.449660
0.444770
0.440860
0.437930
0.435000
0.433040
0.432060
0.429130
0.426200
0.423260
0.419350
0.415440
0.411530
0.408600
0.404690
0.399800
0.395890
0.391010
0.385140
0.378300
0.372430
0.367550
0.363640
0.358750
0.353860
0.349950
0.347020
0.344090
0.341150
0.338220
0.335290
0.333330
0.331380
0.329420
0.328450
0.326490
0.325510
0.324540
0.323560
0.322580
0.321600
0.320630
0.319650
0.318670
0.317690
0.314760
0.311830
0.309870
0.308900
0.310850
0.317690
0.329420
0.348970
0.378300
0.414470
0.456500
0.499510
0.541540
0.578690
0.608990
0.632450
0.649070
0.658850
0.662760
0.663730
0.660800
0.656890
0.652000
0.646140
0.641250
0.637340
0.633430
0.631480
0.629520
0.628540
0.626590
0.624630
0.622680
0.621700
0.619750
0.617790
0.614860
0.609970
0.603130
0.594330
0.582600
0.569890
0.557180
0.544480
0.529810
0.514170
0.498530
0.483870
0.471160
0.459430
0.449660
0.441840
0.435000
0.430110
0.426200
0.424240
0.422290
0.419350
0.417400
0.415440
0.413490
0.410560
0.407620
0.403710
0.399800
0.395890
0.391980
0.389050
0.387100
0.384160
0.381230
0.378300
0.375370
0.372430
0.369500
0.366570
0.363640
0.359730
0.356790
0.353860
0.351910
0.348970
0.347020
0.345060
0.343110
0.342130
0.340180
0.338220
0.337240
0.335290
0.334310
0.333330
0.333330
0.334310
0.333330
0.331380
0.329420
0.325510
0.322580
0.320630
0.323560
0.332360
0.348970
0.373410
0.400780
0.431090
0.468230
0.510260
0.551320
0.588470
0.619750
0.644180
0.659820
0.667640
0.671550
0.670580
0.668620
0.664710
0.659820
0.655910
0.652980
0.650050
0.649070
0.649070
0.648090
0.648090
0.648090
0.648090
0.646140
0.644180
0.640270
0.636360
0.631480
0.626590
0.619750
0.611930
0.602150
0.589440
0.575760
0.561090
0.544480
0.527860
0.513200
0.500490
0.486800
0.474100
0.462370
0.452590
0.444770
0.437930
0.434020
0.430110
0.428150
0.426200
0.425220
0.424240
0.423260
0.420330
0.417400
0.413490
0.409580
0.404690
0.400780
0.395890
0.391980
0.388070
0.383190
0.380250
0.377320
0.373410
0.369500
0.365590
0.362660
0.358750
0.353860
0.349950
0.346040
0.343110
0.341150
0.340180
0.339200
0.338220
0.338220
0.336270
0.335290
0.334310
0.332360
0.331380
0.329420
0.328450
0.327470
0.326490
0.325510
0.324540
0.322580
0.321600
0.321600
0.327470
0.340180
0.359730
0.387100
0.423260
0.463340
0.506350
0.541540
0.572830
0.602150
0.627570
0.647120
0.659820
0.666670
0.668620
0.667640
0.664710
0.661780
0.657870
0.653960
0.650050
0.646140
0.642230
0.640270
0.638320
0.637340
0.635390
0.632450
0.629520
0.626590
0.622680
0.618770
0.615840
0.613880
0.608990
0.601170
0.591400
0.580650
0.566960
0.551320
0.534700
0.517110
0.500490
0.485830
0.473120
0.462370
0.453570
0.446730
0.441840
0.437930
0.435970
0.434020
0.432060
0.430110
0.429130
0.427170
0.424240
0.421310
0.418380
0.414470
0.410560
0.405670
0.400780
0.395890
0.391010
0.386120
0.383190
0.380250
0.376340
0.373410
0.369500
0.365590
0.361680
0.357770
0.353860
0.349950
0.347020
0.344090
0.342130
0.340180
0.339200
0.337240
0.336270
0.336270
0.335290
0.334310
0.332360
0.331380
0.329420
0.327470
0.324540
0.321600
0.318670
0.316720
0.315740
0.315740
0.319650
0.328450
0.345060
0.370480
0.403710
0.442820
0.485830
0.528840
0.567940
0.603130
0.631480
0.650050
0.661780
0.669600
0.673510
0.672530
0.670580
0.665690
0.660800
0.657870
0.653960
0.651030
0.648090
0.646140
0.645160
0.644180
0.643210
0.643210
0.641250
0.638320
0.635390
0.630500
0.624630
0.617790
0.608990
0.598240
0.587490
0.576740
0.563050
0.547410
0.531770
0.515150
0.499510
0.484850
0.472140
0.459430
0.449660
0.442820
0.436950
0.433040
0.430110
0.427170
0.424240
0.422290
0.420330
0.418380
0.415440
0.412510
0.408600
0.403710
0.399800
0.397850
0.394920
0.391980
0.388070
0.383190
0.377320
0.372430
0.366570
0.361680
0.356790
0.352880
0.350930
0.348970
0.347020
0.345060
0.344090
0.342130
0.340180
0.339200
0.337240
0.336270
0.334310
0.332360
0.331380
0.329420
0.329420
0.328450
0.327470
0.325510
0.323560
0.320630
0.317690
0.315740
0.313780
0.312810
0.319650
0.329420
0.338220
0.352880
0.378300
0.412510
0.452590
0.495600
0.537630
0.576740
0.608990
0.634410
0.651030
0.661780
0.666670
0.667640
0.664710
0.660800
0.655910
0.650050
0.646140
0.642230
0.638320
0.636360
0.634410
0.632450
0.631480
0.629520
0.627570
0.625610
0.623660
0.621700
0.618770
0.614860
0.609970
0.602150
0.593350
0.581620
0.566960
0.551320
0.536660
0.522970
0.508310
0.493650
0.478980
0.466280
0.454550
0.445750
0.438910
0.433040
0.429130
0.426200
0.424240
0.422290
0.421310
0.421310
0.420330
0.419350
0.418380
0.415440
0.412510
0.408600
0.403710
0.399800
0.395890
0.392960
0.391010
0.388070
0.385140
0.382210
0.379280
0.376340
0.373410
0.369500
0.365590
0.361680
0.357770
0.355820
0.353860
0.351910
0.348970
0.346040
0.344090
0.342130
0.340180
0.339200
0.337240
0.336270
0.334310
0.333330
0.332360
0.330400
0.327470
0.324540
0.320630
0.318670
0.317690
0.321600
0.330400
0.347020
0.373410
0.406650
0.440860
0.477030
0.520040
0.562070
0.600200
0.632450
0.656890
0.674490
0.685240
0.689150
0.689150
0.687190
0.682310
0.677420
0.672530
0.668620
0.664710
0.661780
0.659820
0.658850
0.657870
0.657870
0.655910
0.653960
0.651030
0.648090
0.642230
0.637340
0.633430
0.626590
0.618770
0.608990
0.596290
0.582600
0.566960
0.550340
0.532750
0.517110
0.503420
0.489740
0.477030
0.465300
0.456500
0.449660
0.443790
0.440860
0.438910
0.436950
0.435000
0.432060
0.429130
0.426200
0.422290
0.418380
0.414470
0.409580
0.404690
0.400780
0.396870
0.392960
0.390030
0.385140
0.382210
0.380250
0.376340
0.372430
0.368520
0.364610
0.359730
0.356790
0.352880
0.349950
0.348000
0.346040
0.344090
0.343110
0.343110
0.342130
0.341150
0.339200
0.338220
0.336270
0.335290
0.333330
0.331380
0.330400
0.328450
0.327470
0.327470
0.325510
0.322580
0.321600
0.323560
0.330400
0.345060
0.368520
0.398830
0.435970
0.478980
0.521990
0.558160
0.587490
0.615840
0.638320
0.655910
0.666670
0.672530
0.674490
0.672530
0.668620
0.662760
0.657870
0.652980
0.648090
0.645160
0.643210
0.642230
0.641250
0.641250
0.640270
0.639300
0.638320
0.636360
0.632450
0.627570
0.621700
0.614860
0.606060
0.596290
0.584560
0.570870
0.557180
0.541540
0.524930
0.509290
0.492670
0.478010
0.466280
0.456500
0.447700
0.440860
0.435970
0.431090
0.427170
0.424240
0.423260
0.422290
0.421310
0.420330
0.418380
0.415440
0.412510
0.408600
0.402740
0.396870
0.391980
0.388070
0.384160
0.380250
0.376340
0.372430
0.367550
0.364610
0.360700
0.356790
0.352880
0.349950
0.347020
0.344090
0.342130
0.340180
0.338220
0.336270
0.335290
0.333330
0.332360
0.332360
0.331380
0.330400
0.328450
0.327470
0.325510
0.322580
0.319650
0.316720
0.313780
0.311830
0.310850
0.311830
0.314760
0.323560
0.340180
0.363640
0.394920
0.433040
0.475070
0.517110
0.557180
0.592380
0.617790
0.636360
0.650050
0.660800
0.665690
0.667640
0.665690
0.662760
0.657870
0.652980
0.649070
0.646140
0.643210
0.640270
0.637340
0.635390
0.634410
0.632450
0.630500
0.628540
0.627570
0.624630
0.620720
0.615840
0.608020
0.600200
0.591400
0.580650
0.566960
0.551320
0.533720
0.516130
0.497560
0.480940
0.466280
0.453570
0.443790
0.435000
0.429130
0.425220
0.422290
0.419350
0.417400
0.416420
0.414470
0.411530
0.408600
0.405670
0.402740
0.399800
0.396870
0.395890
0.392960
0.389050
0.384160
0.379280
0.374390
0.370480
0.366570
0.361680
0.357770
0.354840
0.351910
0.349950
0.348970
0.348000
0.346040
0.343110
0.341150
0.339200
0.337240
0.336270
0.334310
0.333330
0.331380
0.329420
0.328450
0.326490
0.325510
0.323560
0.322580
0.319650
0.316720
0.313780
0.310850
0.308900
0.310850
0.317690
0.328450
0.344090
0.369500
0.402740
0.441840
0.482890
0.522970
0.561090
0.592380
0.616810
0.634410
0.645160
0.650050
0.651030
0.649070
0.645160
0.641250
0.637340
0.634410
0.631480
0.629520
0.627570
0.626590
0.624630
0.623660
0.622680
0.621700
0.619750
0.618770
0.616810
0.613880
0.608020
0.602150
0.594330
0.584560
0.573800
0.561090
0.548390
0.535680
0.521020
0.506350
0.490710
0.476050
0.464320
0.453570
0.446730
0.440860
0.437930
0.435000
0.433040
0.432060
0.431090
0.429130
0.427170
0.424240
0.420330
0.415440
0.411530
0.406650
0.402740
0.398830
0.395890
0.392960
0.391010
0.389050
0.386120
0.382210
0.377320
0.373410
0.367550
0.363640
0.358750
0.354840
0.351910
0.349950
0.348970
0.348970
0.348000
0.346040
0.345060
0.344090
0.343110
0.342130
0.340180
0.339200
0.337240
0.336270
0.335290
0.334310
0.333330
0.331380
0.328450
0.324540
0.322580
0.322580
0.326490
0.336270
0.355820
0.383190
0.419350
0.453570
0.487780
0.526880
0.565980
0.599220
0.627570
0.648090
0.661780
0.670580
0.673510
0.672530
0.669600
0.664710
0.659820
0.654940
0.651030
0.647120
0.644180
0.641250
0.639300
0.637340
0.636360
0.634410
0.632450
0.630500
0.628540
0.624630
0.618770
0.612900
0.605080
0.596290
0.586510
0.575760
0.563050
0.548390
0.532750
0.516130
0.501470
0.488760
0.475070
0.462370
0.450640
0.441840
0.435000
0.430110
0.427170
0.424240
0.422290
0.420330
0.419350
0.417400
0.415440
0.412510
0.409580
0.405670
0.402740
0.398830
0.394920
0.391980
0.388070
0.385140
0.382210
0.380250
0.378300
0.375370
0.371460
0.366570
0.362660
0.358750
0.355820
0.352880
0.350930
0.348970
0.346040
0.345060
0.344090
0.342130
0.339200
0.337240
0.336270
0.334310
0.333330
0.331380
0.329420
0.328450
0.326490
0.324540
0.322580
0.320630
0.318670
0.316720
0.316720
0.320630
0.330400
0.348000
0.372430
0.403710
0.440860
0.480940
0.516130
0.546430
0.577710
0.605080
0.625610
0.639300
0.649070
0.652980
0.652980
0.651030
0.647120
0.643210
0.639300
0.636360
0.633430
0.631480
0.629520
0.627570
0.626590
0.624630
0.627570
0.633430
0.634410
0.632450
0.629520
0.624630
0.617790
0.609970
0.600200
0.588470
0.574780
0.560120
0.544480
0.526880
0.509290
0.493650
0.478980
0.465300
0.455520
0.448680
0.441840
0.435970
0.430110
0.426200
0.421310
0.418380
0.414470
0.411530
0.408600
0.405670
0.401760
0.398830
0.394920
0.391010
0.388070
0.385140
0.380250
0.375370
0.371460
0.368520
0.364610
0.361680
0.356790
0.353860
0.349950
0.347020
0.344090
0.340180
0.338220
0.336270
0.334310
0.332360
0.330400
0.328450
0.327470
0.326490
0.325510
0.324540
0.323560
0.320630
0.317690
0.315740
0.313780
0.312810
0.310850
0.308900
0.306940
0.304010
0.303030
0.304010
0.307920
0.319650
0.338220
0.364610
0.398830
0.438910
0.483870
0.527860
0.568910
0.604110
0.630500
0.648090
0.661780
0.670580
0.674490
0.674490
0.671550
0.667640
0.662760
0.657870
0.654940
0.652000
0.650050
0.647120
0.645160
0.643210
0.643210
0.643210
0.642230
0.640270
0.637340
0.632450
0.626590
0.618770
0.608990
0.599220
0.588470
0.574780
0.560120
0.542520
0.525900
0.509290
0.492670
0.477030
0.464320
0.452590
0.443790
0.435970
0.431090
0.427170
0.424240
0.422290
0.420330
0.417400
0.414470
0.410560
0.407620
0.403710
0.399800
0.395890
0.393940
0.391980
0.388070
0.385140
0.381230
0.378300
0.374390
0.370480
0.365590
0.360700
0.354840
0.349950
0.346040
0.343110
0.341150
0.339200
0.336270
0.334310
0.332360
0.330400
0.328450
0.325510
0.323560
0.320630
0.318670
0.317690
0.316720
0.314760
0.312810
0.310850
0.308900
0.306940
0.304990
0.301080
0.298140
0.297170
0.299120
0.304010
0.314760
0.334310
0.361680
0.397850
0.439880
0.483870
0.528840
0.570870
0.607040
0.634410
0.653960
0.666670
0.671550
0.672530
0.670580
0.666670
0.661780
0.657870
0.654940
0.652980
0.651030
0.649070
0.647120
0.646140
0.643210
0.641250
0.639300
0.637340
0.635390
0.633430
0.630500
0.626590
0.621700
0.614860
0.606060
0.595310
0.581620
0.568910
0.555230
0.538610
0.521990
0.506350
0.491690
0.478010
0.466280
0.456500
0.448680
0.443790
0.438910
0.436950
0.435000
0.433040
0.431090
0.428150
0.424240
0.421310
0.417400
0.412510
0.408600
0.403710
0.399800
0.395890
0.393940
0.391980
0.388070
0.384160
0.378300
0.372430
0.366570
0.362660
0.358750
0.354840
0.351910
0.348970
0.347020
0.347020
0.346040
0.345060
0.343110
0.343110
0.342130
0.341150
0.340180
0.338220
0.337240
0.335290
0.333330
0.333330
0.333330
0.334310
0.333330
0.332360
0.330400
0.329420
0.328450
0.332360
0.341150
0.357770
0.384160
0.413490
0.459430
0.507330
0.543500
0.584560
0.623660
0.656890
0.683280
0.701860
0.713590
0.719450
0.720430
0.718480
0.714570
0.708700
0.702830
0.696970
0.692080
0.688170
0.684260
0.681330
0.679370
0.678400
0.677420
0.675460
0.673510
0.671550
0.668620
0.663730
0.658850
0.651030
0.640270
0.627570
0.613880
0.597260
0.579670
0.561090
0.542520
0.525900
0.512220
0.498530
0.483870
0.471160
0.461390
0.452590
0.446730
0.441840
0.438910
0.437930
0.436950
0.436950
0.436950
0.435000
0.434020
0.430110
0.426200
0.421310
0.415440
0.408600
0.403710
0.397850
0.393940
0.390030
0.387100
0.385140
0.381230
0.376340
0.372430
0.368520
0.365590
0.360700
0.356790
0.351910
0.348000
0.346040
0.344090
0.343110
0.342130
0.341150
0.339200
0.336270
0.333330
0.329420
0.326490
0.323560
0.321600
0.319650
0.318670
0.317690
0.316720
0.314760
0.311830
0.311830
0.317690
0.331380
0.352880
0.384160
0.424240
0.470190
0.513200
0.552300
0.593350
0.630500
0.660800
0.684260
0.699900
0.709680
0.713590
0.713590
0.709680
0.704790
0.698920
0.692080
0.686220
0.682310
0.679370
0.678400
0.677420
0.677420
0.677420
0.676440
0.674490
0.671550
0.667640
0.662760
0.655910
0.648090
0.638320
0.626590
0.612900
0.597260
0.579670
0.561090
0.542520
0.524930
0.509290
0.495600
0.483870
0.473120
0.463340
0.456500
0.449660
0.443790
0.439880
0.436950
0.434020
0.431090
0.428150
0.425220
0.422290
0.419350
0.416420
0.412510
0.407620
0.403710
0.400780
0.396870
0.391980
0.386120
0.380250
0.374390
0.369500
0.366570
0.363640
0.359730
0.356790
0.352880
0.350930
0.348970
0.347020
0.345060
0.343110
0.341150
0.340180
0.339200
0.338220
0.337240
0.335290
0.334310
0.332360
0.330400
0.327470
0.324540
0.322580
0.320630
0.318670
0.317690
0.317690
0.316720
0.319650
0.325510
0.339200
0.359730
0.390030
0.427170
0.471160
0.517110
0.563050
0.604110
0.636360
0.659820
0.679370
0.693060
0.701860
0.705770
0.705770
0.703810
0.699900
0.695010
0.690130
0.686220
0.681330
0.677420
0.675460
0.672530
0.670580
0.668620
0.667640
0.666670
0.664710
0.662760
0.657870
0.652000
0.644180
0.635390
0.626590
0.615840
0.602150
0.587490
0.569890
0.552300
0.533720
0.515150
0.497560
0.481920
0.468230
0.458460
0.451610
0.445750
0.441840
0.438910
0.436950
0.435000
0.433040
0.427170
0.418380
0.411530
0.405670
0.400780
0.395890
0.392960
0.389050
0.386120
0.382210
0.379280
0.374390
0.368520
0.362660
0.357770
0.352880
0.348000
0.344090
0.342130
0.339200
0.337240
0.335290
0.333330
0.331380
0.330400
0.328450
0.326490
0.324540
0.321600
0.318670
0.315740
0.314760
0.312810
0.310850
0.308900
0.307920
0.305960
0.304990
0.304010
0.302050
0.300100
0.298140
0.299120
0.303030
0.314760
0.334310
0.363640
0.401760
0.445750
0.493650
0.541540
0.584560
0.621700
0.651030
0.672530
0.685240
0.692080
0.695010
0.695990
0.694040
0.691100
0.686220
0.681330
0.676440
0.672530
0.669600
0.665690
0.662760
0.660800
0.659820
0.658850
0.657870
0.655910
0.652980
0.650050
0.645160
0.638320
0.630500
0.619750
0.607040
0.593350
0.579670
0.563050
0.545450
0.526880
0.509290
0.492670
0.478010
0.464320
0.454550
0.446730
0.441840
0.437930
0.435970
0.434020
0.433040
0.431090
0.429130
0.426200
0.422290
0.418380
0.413490
0.408600
0.403710
0.398830
0.395890
0.391980
0.389050
0.385140
0.382210
0.378300
0.376340
0.374390
0.371460
0.368520
0.364610
0.360700
0.357770
0.355820
0.352880
0.348970
0.346040
0.345060
0.343110
0.341150
0.339200
0.337240
0.335290
0.333330
0.332360
0.332360
0.331380
0.329420
0.328450
0.326490
0.324540
0.322580
0.320630
0.318670
0.318670
0.323560
0.334310
0.348970
0.369500
0.400780
0.440860
0.486800
0.533720
0.578690
0.619750
0.652980
0.679370
0.695990
0.704790
0.707720
0.706740
0.702830
0.697950
0.692080
0.686220
0.680350
0.676440
0.674490
0.673510
0.672530
0.671550
0.669600
0.665690
0.662760
0.658850
0.655910
0.652980
0.648090
0.642230
0.633430
0.623660
0.611930
0.598240
0.583580
0.568910
0.554250
0.538610
0.521990
0.505380
0.490710
0.477030
0.465300
0.455520
0.448680
0.441840
0.436950
0.434020
0.432060
0.431090
0.429130
0.426200
0.424240
0.421310
0.417400
0.412510
0.408600
0.403710
0.397850
0.393940
0.390030
0.387100
0.383190
0.379280
0.374390
0.369500
0.364610
0.359730
0.354840
0.350930
0.347020
0.343110
0.340180
0.338220
0.337240
0.336270
0.335290
0.333330
0.331380
0.329420
0.328450
0.326490
0.323560
0.320630
0.318670
0.317690
0.317690
0.316720
0.315740
0.313780
0.312810
0.310850
0.309870
0.311830
0.318670
0.333330
0.355820
0.387100
0.419350
0.454550
0.497560
0.543500
0.587490
0.626590
0.658850
0.682310
0.697950
0.705770
0.708700
0.706740
0.701860
0.696970
0.689150
0.680350
0.674490
0.669600
0.665690
0.662760
0.660800
0.659820
0.658850
0.657870
0.656890
0.653960
0.650050
0.645160
0.640270
0.632450
0.621700
0.609970
0.597260
0.581620
0.565980
0.548390
0.530790
0.516130
0.502440
0.488760
0.476050
0.462370
0.451610
0.442820
0.435970
0.430110
0.427170
0.424240
0.422290
0.420330
0.418380
0.416420
0.414470
0.412510
0.409580
0.405670
0.401760
0.396870
0.392960
0.389050
0.385140
0.381230
0.379280
0.376340
0.372430
0.368520
0.363640
0.358750
0.354840
0.350930
0.347020
0.343110
0.340180
0.338220
0.337240
0.336270
0.333330
0.331380
0.329420
0.327470
0.325510
0.324540
0.322580
0.320630
0.318670
0.317690
0.315740
0.314760
0.312810
0.309870
0.306940
0.304990
0.304990
0.308900
0.319650
0.339200
0.367550
0.403710
0.446730
0.486800
0.524930
0.564030
0.601170
0.631480
0.655910
0.671550
0.682310
0.687190
0.688170
0.687190
0.683280
0.678400
0.673510
0.669600
0.665690
0.661780
0.658850
0.655910
0.654940
0.653960
0.652000
0.649070
0.647120
0.644180
0.641250
0.636360
0.630500
0.622680
0.612900
0.601170
0.587490
0.571850
0.555230
0.537630
0.519060
0.501470
0.485830
0.472140
0.461390
0.450640
0.442820
0.436950
0.431090
0.427170
0.425220
0.422290
0.420330
0.417400
0.414470
0.411530
0.408600
0.404690
0.399800
0.394920
0.391010
0.386120
0.382210
0.377320
0.372430
0.367550
0.362660
0.357770
0.353860
0.350930
0.347020
0.343110
0.339200
0.336270
0.334310
0.332360
0.331380
0.330400
0.328450
0.327470
0.326490
0.326490
0.325510
0.323560
0.321600
0.319650
0.317690
0.315740
0.313780
0.312810
0.310850
0.308900
0.306940
0.306940
0.306940
0.307920
0.313780
0.326490
0.347020
0.377320
0.416420
0.461390
0.510260
0.557180
0.601170
0.634410
0.658850
0.679370
0.694040
0.701860
0.704790
0.703810
0.699900
0.695990
0.692080
0.688170
0.685240
0.681330
0.678400
0.675460
0.674490
0.673510
0.673510
0.671550
0.668620
0.665690
0.660800
0.654940
0.648090
0.639300
0.630500
0.620720
0.608990
0.595310
0.581620
0.565000
0.548390
0.530790
0.513200
0.496580
0.481920
0.468230
0.456500
0.448680
0.442820
0.438910
0.436950
0.435970
0.435970
0.435970
0.435000
0.433040
0.431090
0.429130
0.426200
0.423260
0.420330
0.416420
0.411530
0.405670
0.398830
0.393940
0.389050
0.385140
0.381230
0.378300
0.374390
0.371460
0.368520
0.366570
0.363640
0.359730
0.355820
0.351910
0.348000
0.344090
0.341150
0.341150
0.340180
0.339200
0.338220
0.338220
0.337240
0.336270
0.335290
0.334310
0.332360
0.331380
0.329420
0.326490
0.323560
0.321600
0.322580
0.326490
0.334310
0.350930
0.375370
0.408600
0.447700
0.490710
0.533720
0.573800
0.608020
0.634410
0.654940
0.666670
0.673510
0.677420
0.677420
0.675460
0.671550
0.666670
0.661780
0.657870
0.653960
0.652000
0.651030
0.649070
0.648090
0.647120
0.646140
0.643210
0.641250
0.638320
0.634410
0.629520
0.624630
0.617790
0.608990
0.598240
0.586510
0.574780
0.560120
0.543500
0.526880
0.510260
0.493650
0.478980
0.465300
0.454550
0.445750
0.438910
0.435000
0.432060
0.429130
0.427170
0.424240
0.421310
0.419350
0.416420
0.412510
0.408600
0.404690
0.399800
0.395890
0.392960
0.391010
0.388070
0.386120
0.382210
0.378300
0.375370
0.371460
0.367550
0.363640
0.359730
0.354840
0.350930
0.348000
0.344090
0.341150
0.339200
0.336270
0.335290
0.333330
0.331380
0.330400
0.328450
0.327470
0.325510
0.324540
0.324540
0.323560
0.321600
0.320630
0.318670
0.315740
0.312810
0.309870
0.310850
0.315740
0.326490
0.341150
0.360700
0.390030
0.426200
0.467250
0.511240
0.553270
0.591400
0.622680
0.646140
0.662760
0.672530
0.675460
0.675460
0.672530
0.668620
0.663730
0.659820
0.655910
0.652980
0.650050
0.648090
0.646140
0.645160
0.643210
0.640270
0.637340
0.634410
0.630500
0.627570
0.622680
0.617790
0.609970
0.601170
0.590420
0.578690
0.564030
0.549360
0.534700
0.521020
0.506350
0.491690
0.478980
0.466280
0.456500
0.448680
0.441840
0.436950
0.431090
0.427170
0.425220
0.423260
0.422290
0.422290
0.421310
0.420330
0.417400
0.414470
0.410560
0.405670
0.400780
0.394920
0.390030
0.385140
0.382210
0.377320
0.373410
0.369500
0.365590
0.361680
0.356790
0.352880
0.348970
0.345060
0.343110
0.342130
0.341150
0.340180
0.339200
0.337240
0.336270
0.334310
0.333330
0.331380
0.328450
0.326490
0.324540
0.321600
0.319650
0.318670
0.316720
0.314760
0.312810
0.310850
0.309870
0.312810
0.320630
0.335290
0.357770
0.388070
0.419350
0.451610
0.490710
0.529810
0.567940
0.601170
0.627570
0.648090
0.661780
0.669600
0.672530
0.672530
0.669600
0.665690
0.660800
0.655910
0.652000
0.648090
0.645160
0.642230
0.641250
0.640270
0.639300
0.637340
0.634410
0.632450
0.628540
0.624630
0.618770
0.611930
0.603130
0.593350
0.581620
0.566960
0.551320
0.534700
0.517110
0.500490
0.486800
0.474100
0.463340
0.454550
0.446730
0.439880
0.435000
0.431090
0.428150
0.426200
0.424240
0.421310
0.419350
0.417400
0.414470
0.410560
0.406650
0.401760
0.397850
0.393940
0.390030
0.387100
0.382210
0.378300
0.375370
0.373410
0.369500
0.365590
0.361680
0.358750
0.354840
0.350930
0.347020
0.344090
0.342130
0.340180
0.338220
0.337240
0.336270
0.335290
0.334310
0.333330
0.331380
0.330400
0.328450
0.327470
0.327470
0.327470
0.328450
0.328450
0.328450
0.327470
0.326490
0.325510
0.326490
0.331380
0.342130
0.361680
0.390030
0.427170
0.470190
0.516130
0.555230
0.588470
0.621700
0.649070
0.668620
0.682310
0.689150
0.691100
0.689150
0.684260
0.679370
0.675460
0.671550
0.668620
0.666670
0.665690
0.663730
0.662760
0.660800
0.658850
0.656890
0.654940
0.651030
0.647120
0.642230
0.636360
0.630500
0.623660
0.614860
0.604110
0.591400
0.575760
0.560120
0.543500
0.526880
0.512220
0.498530
0.486800
0.477030
0.468230
0.460410
0.453570
0.448680
0.445750
0.442820
0.440860
0.439880
0.437930
0.435970
0.433040
0.430110
0.427170
0.423260
0.418380
0.414470
0.409580
0.405670
0.400780
0.396870
0.392960
0.389050
0.384160
0.380250
0.376340
0.372430
0.368520
0.363640
0.359730
0.355820
0.352880
0.349950
0.348000
0.346040
0.344090
0.342130
0.342130
0.341150
0.340180
0.339200
0.337240
0.334310
0.332360
0.330400
0.328450
0.327470
0.324540
0.321600
0.320630
0.319650
0.319650
0.323560
0.331380
0.347020
0.371460
0.403710
0.442820
0.484850
0.527860
0.568910
0.606060
0.632450
0.652000
0.667640
0.678400
0.684260
0.685240
0.683280
0.679370
0.675460
0.671550
0.667640
0.664710
0.660800
0.657870
0.655910
0.653960
0.652000
0.650050
0.647120
0.644180
0.641250
0.638320
0.634410
0.629520
0.622680
0.614860
0.605080
0.593350
0.579670
0.564030
0.547410
0.530790
0.513200
0.497560
0.481920
0.468230
0.456500
0.448680
0.442820
0.438910
0.435000
0.433040
0.431090
0.429130
0.427170
0.425220
0.423260
0.420330
0.416420
0.412510
0.408600
0.405670
0.401760
0.397850
0.393940
0.389050
0.384160
0.379280
0.374390
0.370480
0.365590
0.361680
0.358750
0.355820
0.353860
0.350930
0.348970
0.347020
0.346040
0.344090
0.341150
0.338220
0.336270
0.335290
0.334310
0.333330
0.332360
0.331380
0.329420
0.328450
0.326490
0.325510
0.323560
0.322580
0.320630
0.319650
0.318670
0.319650
0.325510
0.336270
0.354840
0.382210
0.415440
0.455520
0.498530
0.541540
0.578690
0.608990
0.635390
0.652000
0.662760
0.669600
0.671550
0.671550
0.668620
0.663730
0.658850
0.652980
0.648090
0.644180
0.641250
0.640270
0.638320
0.637340
0.637340
0.637340
0.636360
0.634410
0.630500
0.626590
0.620720
0.612900
0.604110
0.593350
0.582600
0.570870
0.557180
0.541540
0.524930
0.508310
0.492670
0.478010
0.465300
0.454550
0.445750
0.438910
0.433040
0.430110
0.427170
0.426200
0.423260
0.421310
0.418380
0.415440
0.411530
0.408600
0.404690
0.400780
0.395890
0.392960
0.391010
0.388070
0.385140
0.382210
0.378300
0.373410
0.368520
0.363640
0.357770
0.352880
0.348000
0.345060
0.343110
0.343110
0.341150
0.340180
0.338220
0.337240
0.335290
0.333330
0.331380
0.328450
0.324540
0.321600
0.319650
0.318670
0.317690
0.315740
0.314760
0.312810
0.309870
0.307920
0.305960
0.304990
0.306940
0.313780
0.327470
0.346040
0.369500
0.402740
0.441840
0.484850
0.527860
0.566960
0.601170
0.627570
0.645160
0.657870
0.664710
0.667640
0.667640
0.665690
0.662760
0.657870
0.652980
0.649070
0.644180
0.641250
0.638320
0.636360
0.634410
0.632450
0.630500
0.627570
0.624630
0.622680
0.618770
0.613880
0.607040
0.598240
0.587490
0.575760
0.561090
0.544480
0.529810
0.516130
0.501470
0.486800
0.473120
0.460410
0.449660
0.441840
0.435000
0.429130
0.424240
0.421310
0.418380
0.417400
0.415440
0.414470
0.413490
0.411530
0.408600
0.404690
0.400780
0.395890
0.391980
0.388070
0.384160
0.381230
0.378300
0.375370
0.371460
0.367550
0.362660
0.357770
0.353860
0.350930
0.347020
0.345060
0.343110
0.342130
0.342130
0.342130
0.342130
0.342130
0.342130
0.341150
0.339200
0.337240
0.333330
0.330400
0.327470
0.325510
0.324540
0.324540
0.323560
0.320630
0.318670
0.316720
0.315740
0.318670
0.326490
0.341150
0.364610
0.395890
0.432060
0.467250
0.501470
0.538610
0.574780
0.605080
0.630500
0.650050
0.662760
0.669600
0.671550
0.670580
0.667640
0.663730
0.658850
0.654940
0.651030
0.648090
0.645160
0.643210
0.642230
0.642230
0.642230
0.641250
0.640270
0.637340
0.633430
0.629520
0.624630
0.618770
0.611930
0.602150
0.591400
0.579670
0.565000
0.550340
0.533720
0.517110
0.502440
0.489740
0.477030
0.466280
0.456500
0.447700
0.441840
0.437930
0.435970
0.434020
0.432060
0.430110
0.427170
0.425220
0.421310
0.417400
0.412510
0.408600
0.403710
0.399800
0.394920
0.391980
0.388070
0.385140
0.382210
0.379280
0.377320
0.373410
0.371460
0.370480
0.368520
0.364610
0.360700
0.356790
0.353860
0.351910
0.349950
0.348970
0.348970
0.348000
0.346040
0.343110
0.341150
0.338220
0.335290
0.333330
0.331380
0.330400
0.330400
0.330400
0.330400
0.330400
0.329420
0.328450
0.328450
0.331380
0.340180
0.356790
0.381230
0.414470
0.453570
0.496580
0.534700
0.568910
0.603130
0.633430
0.656890
0.672530
0.681330
0.685240
0.684260
0.681330
0.676440
0.671550
0.666670
0.662760
0.657870
0.653960
0.651030
0.648090
0.647120
0.646140
0.645160
0.642230
0.639300
0.636360
0.632450
0.627570
0.621700
0.614860
0.605080
0.594330
0.582600
0.568910
0.553270
0.537630
0.521020
0.505380
0.489740
0.476050
0.464320
0.454550
0.447700
0.441840
0.437930
0.435000
0.433040
0.431090
0.429130
0.426200
0.424240
0.421310
0.419350
0.416420
0.412510
0.409580
0.406650
0.402740
0.399800
0.395890
0.391010
0.386120
0.381230
0.376340
0.371460
0.367550
0.364610
0.360700
0.357770
0.355820
0.352880
0.351910
0.349950
0.348000
0.347020
0.345060
0.344090
0.343110
0.342130
0.341150
0.338220
0.336270
0.333330
0.330400
0.328450
0.327470
0.325510
0.323560
0.320630
0.317690
0.316720
0.315740
0.316720
0.322580
0.334310
0.354840
0.383190
0.419350
0.459430
0.502440
0.543500
0.581620
0.609970
0.631480
0.650050
0.664710
0.673510
0.677420
0.677420
0.675460
0.671550
0.666670
0.661780
0.657870
0.653960
0.651030
0.648090
0.647120
0.647120
0.646140
0.643210
0.641250
0.638320
0.634410
0.629520
0.622680
0.615840
0.608020
0.600200
0.590420
0.578690
0.564030
0.548390
0.531770
0.516130
0.501470
0.487780
0.475070
0.463340
0.454550
0.448680
0.443790
0.439880
0.435000
0.432060
0.430110
0.428150
0.426200
0.423260
0.420330
0.417400
0.414470
0.410560
0.407620
0.403710
0.397850
0.392960
0.387100
0.382210
0.376340
0.372430
0.369500
0.365590
0.362660
0.358750
0.355820
0.352880
0.349950
0.347020
0.345060
0.344090
0.342130
0.340180
0.337240
0.335290
0.332360
0.329420
0.328450
0.326490
0.324540
0.322580
0.320630
0.319650
0.317690
0.315740
0.314760
0.312810
0.311830
0.310850
0.311830
0.315740
0.324540
0.339200
0.361680
0.392960
0.431090
0.474100
0.518080
0.560120
0.595310
0.624630
0.645160
0.658850
0.665690
0.668620
0.668620
0.664710
0.660800
0.655910
0.651030
0.647120
0.643210
0.640270
0.638320
0.636360
0.635390
0.635390
0.634410
0.633430
0.632450
0.630500
0.626590
0.621700
0.614860
0.606060
0.596290
0.584560
0.573800
0.562070
0.547410
0.531770
0.516130
0.501470
0.486800
0.474100
0.462370
0.453570
0.445750
0.440860
0.437930
0.435970
0.435000
0.433040
0.432060
0.430110
0.428150
0.426200
0.424240
0.421310
0.418380
0.414470
0.410560
0.406650
0.403710
0.400780
0.397850
0.394920
0.391010
0.387100
0.383190
0.379280
0.374390
0.370480
0.366570
0.364610
0.362660
0.359730
0.357770
0.355820
0.353860
0.351910
0.350930
0.349950
0.348970
0.347020
0.346040
0.344090
0.344090
0.343110
0.341150
0.339200
0.337240
0.334310
0.330400
0.326490
0.324540
0.325510
0.330400
0.341150
0.356790
0.377320
0.408600
0.446730
0.488760
0.532750
0.571850
0.607040
0.634410
0.654940
0.667640
0.674490
0.676440
0.675460
0.672530
0.669600
0.666670
0.663730
0.659820
0.656890
0.654940
0.653960
0.652980
0.652000
0.651030
0.649070
0.647120
0.645160
0.642230
0.638320
0.634410
0.628540
0.621700
0.611930
0.602150
0.589440
0.575760
0.561090
0.547410
0.534700
0.520040
0.504400
0.490710
0.478010
0.467250
0.458460
0.451610
0.446730
0.443790
0.440860
0.438910
0.436950
0.435000
0.432060
0.430110
0.426200
0.422290
0.417400
0.413490
0.408600
0.403710
0.398830
0.394920
0.391980
0.390030
0.386120
0.382210
0.378300
0.374390
0.370480
0.366570
0.363640
0.360700
0.357770
0.355820
0.354840
0.353860
0.352880
0.351910
0.349950
0.348000
0.346040
0.345060
0.343110
0.341150
0.340180
0.338220
0.338220
0.337240
0.336270
0.335290
0.333330
0.332360
0.330400
0.329420
0.332360
0.339200
0.352880
0.375370
0.404690
0.435000
0.467250
0.505380
0.543500
0.579670
0.609970
0.633430
0.650050
0.660800
0.665690
0.667640
0.666670
0.663730
0.658850
0.653960
0.649070
0.646140
0.642230
0.640270
0.638320
0.636360
0.634410
0.633430
0.632450
0.630500
0.627570
0.623660
0.619750
0.614860
0.609970
0.602150
0.593350
0.582600
0.570870
0.556210
0.541540
0.524930
0.511240
0.498530
0.484850
0.472140
0.460410
0.452590
0.445750
0.440860
0.437930
0.435000
0.433040
0.432060
0.430110
0.429130
0.428150
0.426200
0.423260
0.420330
0.415440
0.409580
0.404690
0.399800
0.394920
0.391010
0.387100
0.383190
0.381230
0.378300
0.374390
0.370480
0.366570
0.363640
0.359730
0.356790
0.353860
0.350930
0.348000
0.346040
0.345060
0.344090
0.342130
0.340180
0.338220
0.337240
0.335290
0.334310
0.332360
0.331380
0.329420
0.328450
0.328450
0.327470
0.325510
0.322580
0.318670
0.315740
0.318670
0.328450
0.347020
0.375370
0.410560
0.450640
0.494620
0.532750
0.565000
0.596290
0.622680
0.643210
0.656890
0.664710
0.668620
0.668620
0.666670
0.662760
0.658850
0.654940
0.651030
0.647120
0.644180
0.641250
0.640270
0.638320
0.637340
0.636360
0.635390
0.632450
0.629520
0.624630
0.618770
0.611930
0.604110
0.594330
0.583580
0.570870
0.556210
0.540570
0.523950
0.507330
0.492670
0.478010
0.467250
0.457480
0.448680
0.441840
0.435000
0.429130
0.425220
0.422290
0.419350
0.417400
0.415440
0.412510
0.408600
0.405670
0.401760
0.398830
0.395890
0.393940
0.391010
0.388070
0.385140
0.382210
0.377320
0.372430
0.368520
0.366570
0.363640
0.358750
0.354840
0.350930
0.347020
0.343110
0.340180
0.338220
0.336270
0.335290
0.333330
0.331380
0.331380
0.330400
0.329420
0.328450
0.326490
0.325510
0.323560
0.321600
0.318670
0.316720
0.314760
0.311830
0.309870
0.308900
0.308900
0.310850
0.318670
0.332360
0.354840
0.386120
0.423260
0.464320
0.507330
0.547410
0.582600
0.608020
0.626590
0.641250
0.651030
0.655910
0.657870
0.656890
0.652980
0.648090
0.643210
0.639300
0.636360
0.633430
0.631480
0.629520
0.629520
0.629520
0.630500
0.631480
0.630500
0.629520
0.627570
0.623660
0.618770
0.611930
0.604110
0.593350
0.580650
0.566960
0.552300
0.536660
0.521020
0.505380
0.490710
0.478010
0.466280
0.457480
0.450640
0.445750
0.442820
0.440860
0.439880
0.439880
0.438910
0.436950
0.435970
0.434020
0.432060
0.428150
0.425220
0.422290
0.418380
0.413490
0.409580
0.404690
0.398830
0.393940
0.390030
0.385140
0.380250
0.376340
0.372430
0.368520
0.366570
0.363640
0.360700
0.356790
0.353860
0.351910
0.348970
0.348000
0.346040
0.344090
0.342130
0.342130
0.341150
0.339200
0.337240
0.335290
0.333330
0.331380
0.330400
0.328450
0.327470
0.325510
0.323560
0.322580
0.323560
0.327470
0.337240
0.352880
0.378300
0.411530
0.450640
0.492670
0.535680
0.575760
0.609970
0.637340
0.655910
0.668620
0.676440
0.680350
0.680350
0.678400
0.674490
0.670580
0.666670
0.662760
0.659820
0.655910
0.652980
0.649070
0.646140
0.643210
0.641250
0.639300
0.637340
0.634410
0.631480
0.627570
0.621700
0.614860
0.606060
0.596290
0.586510
0.572830
0.558160
0.542520
0.525900
0.509290
0.493650
0.478980
0.466280
0.456500
0.448680
0.442820
0.439880
0.437930
0.435970
0.435000
0.433040
0.430110
0.426200
0.421310
0.417400
0.412510
0.409580
0.406650
0.404690
0.402740
0.399800
0.396870
0.393940
0.391010
0.388070
0.385140
0.382210
0.378300
0.375370
0.372430
0.367550
0.363640
0.361680
0.358750
0.355820
0.353860
0.351910
0.350930
0.349950
0.348000
0.347020
0.345060
0.343110
0.342130
0.341150
0.340180
0.339200
0.337240
0.335290
0.332360
0.329420
0.326490
0.324540
0.323560
0.326490
0.334310
0.346040
0.362660
0.388070
0.422290
0.461390
0.503420
0.544480
0.581620
0.611930
0.634410
0.651030
0.660800
0.665690
0.665690
0.663730
0.659820
0.655910
0.652000
0.649070
0.646140
0.643210
0.641250
0.639300
0.638320
0.637340
0.635390
0.633430
0.631480
0.629520
0.627570
0.623660
0.619750
0.614860
0.607040
0.598240
0.586510
0.573800
0.560120
0.547410
0.531770
0.516130
0.501470
0.487780
0.476050
0.465300
0.455520
0.448680
0.442820
0.437930
0.435000
0.434020
0.432060
0.430110
0.429130
0.427170
0.425220
0.423260
0.419350
0.415440
0.411530
0.405670
0.400780
0.397850
0.393940
0.390030
0.387100
0.383190
0.380250
0.376340
0.372430
0.368520
0.363640
0.359730
0.356790
0.354840
0.352880
0.350930
0.348000
0.346040
0.344090
0.342130
0.341150
0.339200
0.338220
0.336270
0.334310
0.333330
0.332360
0.332360
0.331380
0.329420
0.328450
0.326490
0.325510
0.324540
0.325510
0.332360
0.345060
0.364610
0.388070
0.414470
0.447700
0.485830
0.525900
0.562070
0.594330
0.620720
0.640270
0.653960
0.662760
0.666670
0.667640
0.666670
0.663730
0.658850
0.653960
0.650050
0.646140
0.643210
0.641250
0.640270
0.640270
0.639300
0.638320
0.636360
0.634410
0.631480
0.626590
0.620720
0.614860
0.607040
0.597260
0.585530
0.571850
0.557180
0.541540
0.524930
0.511240
0.497560
0.484850
0.471160
0.459430
0.450640
0.442820
0.436950
0.433040
0.430110
0.428150
0.426200
0.425220
0.424240
0.422290
0.420330
0.417400
0.412510
0.408600
0.404690
0.400780
0.397850
0.393940
0.391010
0.388070
0.385140
0.383190
0.379280
0.374390
0.370480
0.365590
0.362660
0.356790
0.353860
0.351910
0.348970
0.348000
0.347020
0.346040
0.345060
0.344090
0.341150
0.339200
0.336270
0.333330
0.330400
0.328450
0.326490
0.325510
0.324540
0.322580
0.320630
0.318670
0.319650
0.324540
0.334310
0.351910
0.378300
0.411530
0.450640
0.485830
0.520040
0.557180
0.590420
0.618770
0.640270
0.654940
0.663730
0.666670
0.667640
0.664710
0.660800
0.655910
0.650050
0.645160
0.642230
0.639300
0.642230
0.647120
0.650050
0.652000
0.652000
0.652000
0.651030
0.650050
0.648090
0.644180
0.639300
0.631480
0.621700
0.610950
0.598240
0.583580
0.567940
0.551320
0.534700
0.519060
0.504400
0.491690
0.481920
0.473120
0.465300
0.458460
0.454550
0.451610
0.448680
0.446730
0.445750
0.442820
0.439880
0.437930
0.435000
0.432060
0.428150
0.421310
0.416420
0.411530
0.404690
0.400780
0.396870
0.391980
0.387100
0.383190
0.380250
0.376340
0.372430
0.369500
0.366570
0.363640
0.360700
0.357770
0.355820
0.353860
0.350930
0.349950
0.349950
0.349950
0.348970
0.348000
0.347020
0.345060
0.343110
0.341150
0.340180
0.337240
0.336270
0.336270
0.335290
0.336270
0.340180
0.349950
0.367550
0.393940
0.429130
0.470190
0.514170
0.558160
0.598240
0.627570
0.651030
0.670580
0.685240
0.695010
0.698920
0.699900
0.697950
0.695990
0.692080
0.688170
0.684260
0.680350
0.676440
0.672530
0.670580
0.668620
0.665690
0.662760
0.659820
0.656890
0.654940
0.652980
0.650050
0.645160
0.639300
0.631480
0.621700
0.608020
0.592380
0.574780
0.557180
0.539590
0.521990
0.505380
0.491690
0.478980
0.469210
0.461390
0.455520
0.450640
0.447700
0.445750
0.443790
0.441840
0.440860
0.438910
0.436950
0.435000
0.432060
0.429130
0.427170
0.423260
0.418380
0.413490
0.409580
0.404690
0.398830
0.393940
0.389050
0.385140
0.380250
0.377320
0.375370
0.372430
0.369500
0.365590
0.362660
0.359730
0.355820
0.352880
0.350930
0.348000
0.344090
0.341150
0.339200
0.338220
0.337240
0.335290
0.334310
0.332360
0.331380
0.330400
0.329420
0.327470
0.324540
0.323560
0.323560
0.325510
0.333330
0.347020
0.367550
0.396870
0.434020
0.477030
0.522970
0.566960
0.606060
0.639300
0.664710
0.681330
0.691100
0.697950
0.699900
0.698920
0.696970
0.693060
0.689150
0.686220
0.682310
0.679370
0.675460
0.672530
0.670580
0.668620
0.666670
0.664710
0.661780
0.658850
0.655910
0.651030
0.645160
0.637340
0.627570
0.616810
0.604110
0.592380
0.576740
0.560120
0.542520
0.523950
0.507330
0.492670
0.479960
0.469210
0.460410
0.453570
0.449660
0.446730
0.444770
0.442820
0.440860
0.437930
0.435970
0.432060
0.428150
0.423260
0.419350
0.414470
0.409580
0.404690
0.401760
0.398830
0.395890
0.391980
0.389050
0.386120
0.382210
0.379280
0.376340
0.372430
0.368520
0.365590
0.363640
0.360700
0.357770
0.354840
0.351910
0.349950
0.348000
0.346040
0.344090
0.342130
0.338220
0.333330
0.330400
0.328450
0.327470
0.325510
0.324540
0.322580
0.320630
0.317690
0.315740
0.313780
0.315740
0.323560
0.334310
0.351910
0.377320
0.411530
0.451610
0.493650
0.535680
0.574780
0.608020
0.635390
0.655910
0.670580
0.679370
0.682310
0.681330
0.678400
0.675460
0.671550
0.667640
0.663730
0.659820
0.656890
0.655910
0.653960
0.652000
0.650050
0.647120
0.644180
0.640270
0.637340
0.632450
0.625610
0.617790
0.608990
0.599220
0.587490
0.574780
0.562070
0.549360
0.533720
0.517110
0.500490
0.484850
0.471160
0.458460
0.448680
0.440860
0.435000
0.429130
0.425220
0.422290
0.420330
0.419350
0.417400
0.415440
0.413490
0.409580
0.405670
0.402740
0.398830
0.394920
0.391010
0.389050
0.386120
0.381230
0.375370
0.369500
0.364610
0.358750
0.354840
0.350930
0.348000
0.344090
0.341150
0.339200
0.337240
0.335290
0.334310
0.332360
0.330400
0.328450
0.325510
0.323560
0.321600
0.319650
0.317690
0.316720
0.315740
0.314760
0.313780
0.312810
0.310850
0.307920
0.305960
0.304990
0.307920
0.316720
0.332360
0.357770
0.390030
0.422290
0.457480
0.499510
0.541540
0.580650
0.614860
0.643210
0.662760
0.675460
0.682310
0.683280
0.681330
0.677420
0.672530
0.668620
0.664710
0.662760
0.660800
0.658850
0.657870
0.656890
0.656890
0.655910
0.653960
0.651030
0.648090
0.644180
0.639300
0.635390
0.629520
0.621700
0.611930
0.599220
0.584560
0.568910
0.551320
0.534700
0.520040
0.507330
0.494620
0.481920
0.471160
0.460410
0.451610
0.443790
0.437930
0.434020
0.431090
0.429130
0.427170
0.426200
0.425220
0.423260
0.421310
0.418380
0.414470
0.409580
0.404690
0.398830
0.392960
0.389050
0.385140
0.382210
0.380250
0.377320
0.374390
0.371460
0.368520
0.364610
0.361680
0.358750
0.355820
0.351910
0.348970
0.346040
0.345060
0.344090
0.343110
0.341150
0.339200
0.337240
0.335290
0.333330
0.331380
0.329420
0.327470
0.325510
0.325510
0.324540
0.321600
0.318670
0.316720
0.316720
0.320630
0.331380
0.351910
0.381230
0.419350
0.462370
0.508310
0.547410
0.580650
0.613880
0.641250
0.662760
0.677420
0.686220
0.690130
0.690130
0.687190
0.682310
0.676440
0.670580
0.664710
0.659820
0.655910
0.652980
0.652000
0.651030
0.651030
0.650050
0.649070
0.646140
0.643210
0.639300
0.634410
0.628540
0.620720
0.610950
0.599220
0.586510
0.570870
0.554250
0.536660
0.520040
0.502440
0.487780
0.476050
0.466280
0.456500
0.448680
0.442820
0.438910
0.436950
0.434020
0.431090
0.428150
0.424240
0.421310
0.417400
0.414470
0.411530
0.408600
0.405670
0.401760
0.398830
0.394920
0.391980
0.387100
0.382210
0.376340
0.371460
0.367550
0.365590
0.362660
0.359730
0.356790
0.353860
0.350930
0.348970
0.346040
0.343110
0.341150
0.339200
0.338220
0.338220
0.337240
0.335290
0.334310
0.332360
0.331380
0.329420
0.328450
0.326490
0.325510
0.322580
0.319650
0.316720
0.315740
0.316720
0.320630
0.330400
0.348000
0.374390
0.407620
0.446730
0.489740
0.532750
0.572830
0.603130
0.626590
0.646140
0.660800
0.670580
0.674490
0.674490
0.672530
0.669600
0.666670
0.662760
0.659820
0.656890
0.653960
0.651030
0.650050
0.648090
0.646140
0.644180
0.640270
0.635390
0.631480
0.626590
0.621700
0.614860
0.607040
0.598240
0.588470
0.576740
0.563050
0.547410
0.530790
0.514170
0.498530
0.483870
0.471160
0.458460
0.448680
0.441840
0.437930
0.434020
0.432060
0.430110
0.428150
0.426200
0.423260
0.421310
0.418380
0.414470
0.410560
0.406650
0.403710
0.399800
0.394920
0.391010
0.387100
0.383190
0.380250
0.376340
0.373410
0.369500
0.364610
0.360700
0.356790
0.353860
0.349950
0.348000
0.346040
0.344090
0.342130
0.340180
0.337240
0.335290
0.332360
0.329420
0.328450
0.327470
0.326490
0.324540
0.323560
0.321600
0.320630
0.318670
0.316720
0.313780
0.311830
0.310850
0.310850
0.314760
0.323560
0.339200
0.363640
0.395890
0.434020
0.476050
0.518080
0.559140
0.594330
0.622680
0.645160
0.658850
0.665690
0.670580
0.671550
0.669600
0.665690
0.660800
0.655910
0.652000
0.648090
0.645160
0.643210
0.642230
0.640270
0.638320
0.636360
0.633430
0.631480
0.629520
0.625610
0.620720
0.613880
0.606060
0.596290
0.584560
0.572830
0.561090
0.546430
0.530790
0.514170
0.498530
0.482890
0.468230
0.456500
0.445750
0.437930
0.431090
0.425220
0.421310
0.419350
0.417400
0.415440
0.414470
0.412510
0.410560
0.406650
0.402740
0.398830
0.393940
0.389050
0.386120
0.383190
0.379280
0.375370
0.370480
0.365590
0.361680
0.356790
0.352880
0.349950
0.347020
0.345060
0.341150
0.339200
0.337240
0.336270
0.334310
0.333330
0.331380
0.329420
0.328450
0.326490
0.325510
0.323560
0.322580
0.321600
0.320630
0.319650
0.318670
0.317690
0.314760
0.311830
0.308900
0.306940
0.306940
0.312810
0.326490
0.344090
0.367550
0.401760
0.442820
0.488760
0.534700
0.575760
0.610950
0.639300
0.660800
0.673510
0.679370
0.680350
0.678400
0.674490
0.669600
0.664710
0.659820
0.655910
0.652000
0.649070
0.647120
0.646140
0.645160
0.645160
0.643210
0.640270
0.637340
0.634410
0.630500
0.625610
0.618770
0.609970
0.599220
0.588470
0.575760
0.561090
0.545450
0.531770
0.518080
0.503420
0.488760
0.475070
0.462370
0.452590
0.443790
0.437930
0.433040
0.430110
0.428150
0.426200
0.425220
0.424240
0.422290
0.421310
0.419350
0.416420
0.412510
0.408600
0.404690
0.400780
0.397850
0.394920
0.392960
0.391010
0.388070
0.385140
0.382210
0.378300
0.374390
0.370480
0.366570
0.361680
0.358750
0.355820
0.354840
0.353860
0.352880
0.351910
0.349950
0.348970
0.347020
0.344090
0.342130
0.339200
0.337240
0.334310
0.332360
0.331380
0.331380
0.329420
0.327470
0.325510
0.324540
0.324540
0.330400
0.343110
0.363640
0.391980
0.428150
0.462370
0.496580
0.533720
0.570870
0.602150
0.627570
0.647120
0.661780
0.670580
0.674490
0.675460
0.674490
0.672530
0.668620
0.665690
0.661780
0.658850
0.655910
0.653960
0.652000
0.650050
0.647120
0.645160
0.642230
0.638320
0.634410
0.630500
0.626590
0.620720
0.613880
0.604110
0.593350
0.579670
0.565000
0.549360
0.532750
0.516130
0.500490
0.486800
0.475070
0.463340
0.453570
0.445750
0.439880
0.435970
0.433040
0.431090
0.429130
0.427170
0.425220
0.424240
0.422290
0.419350
0.415440
0.409580
0.403710
0.399800
0.395890
0.391980
0.389050
0.386120
0.383190
0.380250
0.377320
0.374390
0.370480
0.365590
0.361680
0.357770
0.354840
0.352880
0.350930
0.348000
0.346040
0.343110
0.341150
0.340180
0.338220
0.337240
0.335290
0.334310
0.332360
0.331380
0.329420
0.328450
0.326490
0.324540
0.321600
0.319650
0.318670
0.317690
0.319650
0.325510
0.338220
0.359730
0.389050
0.426200
0.467250
0.511240
0.553270
0.586510
0.612900
0.636360
0.654940
0.667640
0.673510
0.676440
0.674490
0.671550
0.666670
0.660800
0.655910
0.652000
0.648090
0.644180
0.642230
0.640270
0.637340
0.635390
0.634410
0.632450
0.630500
0.627570
0.623660
0.618770
0.613880
0.606060
0.597260
0.585530
0.572830
0.557180
0.541540
0.523950
0.506350
0.490710
0.475070
0.462370
0.453570
0.446730
0.440860
0.435970
0.433040
0.431090
0.429130
0.427170
0.425220
0.422290
0.419350
0.416420
0.412510
0.409580
0.406650
0.402740
0.399800
0.395890
0.392960
0.388070
0.384160
0.380250
0.375370
0.371460
0.368520
0.365590
0.362660
0.358750
0.354840
0.351910
0.348000
0.344090
0.340180
0.337240
0.334310
0.331380
0.329420
0.327470
0.326490
0.325510
0.324540
0.322580
0.320630
0.318670
0.315740
0.312810
0.308900
0.304990
0.303030
0.302050
0.303030
0.304990
0.311830
0.326490
0.348970
0.380250
0.418380
0.461390
0.506350
0.548390
0.586510
0.617790
0.642230
0.657870
0.666670
0.671550
0.673510
0.672530
0.668620
0.664710
0.659820
0.655910
0.652000
0.649070
0.646140
0.644180
0.642230
0.640270
0.638320
0.637340
0.635390
0.632450
0.628540
0.623660
0.616810
0.608020
0.599220
0.589440
0.578690
0.566960
0.552300
0.536660
0.520040
0.503420
0.486800
0.472140
0.458460
0.447700
0.438910
0.431090
0.426200
0.422290
0.418380
0.415440
0.413490
0.412510
0.410560
0.408600
0.405670
0.401760
0.398830
0.395890
0.392960
0.390030
0.388070
0.385140
0.381230
0.375370
0.370480
0.365590
0.359730
0.354840
0.349950
0.346040
0.343110
0.341150
0.339200
0.337240
0.336270
0.335290
0.334310
0.332360
0.331380
0.329420
0.328450
0.328450
0.327470
0.326490
0.327470
0.327470
0.327470
0.326490
0.325510
0.323560
0.322580
0.320630
0.317690
0.317690
0.320630
0.329420
0.343110
0.362660
0.392960
0.431090
0.474100
0.520040
0.564030
0.604110
0.636360
0.660800
0.678400
0.688170
0.692080
0.692080
0.689150
0.685240
0.680350
0.674490
0.669600
0.664710
0.661780
0.657870
0.654940
0.652980
0.651030
0.648090
0.645160
0.642230
0.639300
0.636360
