0.510260
0.503420
0.494620
0.486800
0.479960
0.474100
0.470190
0.466280
0.464320
0.462370
0.461390
0.460410
0.458460
0.456500
0.454550
0.452590
0.450640
0.448680
0.445750
0.443790
0.440860
0.438910
0.436950
0.435000
0.432060
0.430110
0.428150
0.426200
0.424240
0.423260
0.421310
0.419350
0.416420
0.414470
0.411530
0.409580
0.406650
0.404690
0.401760
0.399800
0.397850
0.395890
0.393940
0.391980
0.390030
0.388070
0.386120
0.384160
0.382210
0.380250
0.378300
0.376340
0.374390
0.372430
0.371460
0.369500
0.367550
0.365590
0.363640
0.360700
0.358750
0.356790
0.355820
0.358750
0.365590
0.376340
0.390030
0.412510
0.439880
0.473120
0.509290
0.545450
0.581620
0.613880
0.643210
0.668620
0.689150
0.706740
0.718480
0.726300
0.734120
0.739980
0.744870
0.747800
0.749760
0.750730
0.748780
0.745850
0.740960
0.733140
0.724340
0.713590
0.699900
0.684260
0.666670
0.648090
0.628540
0.608990
0.590420
0.572830
0.557180
0.543500
0.531770
0.522970
0.516130
0.510260
0.505380
0.501470
0.497560
0.494620
0.490710
0.486800
0.481920
0.478010
0.472140
0.468230
0.463340
0.458460
0.452590
0.446730
0.439880
0.433040
0.426200
0.420330
0.413490
0.407620
0.401760
0.394920
0.390030
0.386120
0.381230
0.376340
0.370480
0.365590
0.361680
0.356790
0.351910
0.348000
0.344090
0.340180
0.337240
0.335290
0.333330
0.331380
0.328450
0.326490
0.324540
0.322580
0.320630
0.318670
0.316720
0.314760
0.313780
0.312810
0.310850
0.308900
0.306940
0.304010
0.301080
0.299120
0.298140
0.299120
0.304990
0.316720
0.334310
0.355820
0.380250
0.413490
0.450640
0.489740
0.528840
0.565000
0.598240
0.626590
0.651030
0.671550
0.688170
0.699900
0.708700
0.716520
0.723360
0.728250
0.733140
0.736070
0.737050
0.737050
0.734120
0.729230
0.722390
0.713590
0.701860
0.689150
0.674490
0.656890
0.638320
0.618770
0.598240
0.579670
0.562070
0.546430
0.532750
0.520040
0.511240
0.504400
0.497560
0.492670
0.487780
0.483870
0.479960
0.476050
0.472140
0.467250
0.462370
0.457480
0.451610
0.446730
0.441840
0.436950
0.431090
0.424240
0.418380
0.411530
0.405670
0.399800
0.393940
0.388070
0.383190
0.378300
0.374390
0.370480
0.365590
0.361680
0.356790
0.352880
0.348970
0.345060
0.341150
0.337240
0.333330
0.329420
0.327470
0.325510
0.322580
0.319650
0.317690
0.314760
0.312810
0.309870
0.306940
0.304990
0.303030
0.302050
0.304010
0.308900
0.317690
0.332360
0.345060
0.359730
0.388070
0.424240
0.464320
0.504400
0.541540
0.575760
0.604110
0.625610
0.642230
0.656890
0.669600
0.679370
0.687190
0.693060
0.696970
0.697950
0.698920
0.696970
0.693060
0.688170
0.680350
0.670580
0.657870
0.643210
0.625610
0.605080
0.584560
0.563050
0.541540
0.521990
0.503420
0.486800
0.474100
0.463340
0.453570
0.445750
0.438910
0.432060
0.427170
0.422290
0.417400
0.412510
0.407620
0.402740
0.397850
0.392960
0.388070
0.382210
0.376340
0.369500
0.363640
0.357770
0.351910
0.346040
0.340180
0.334310
0.329420
0.325510
0.321600
0.318670
0.314760
0.310850
0.306940
0.303030
0.300100
0.297170
0.294230
0.291300
0.289350
0.287390
0.286410
0.284460
0.282500
0.281520
0.279570
0.278590
0.276640
0.275660
0.274680
0.273700
0.272730
0.271750
0.271750
0.271750
0.271750
0.269790
0.268820
0.266860
0.264910
0.262950
0.260020
0.258060
0.255130
0.253180
0.251220
0.250240
0.249270
0.251220
0.256110
0.265880
0.282500
0.306940
0.338220
0.374390
0.415440
0.457480
0.499510
0.532750
0.561090
0.588470
0.612900
0.633430
0.650050
0.662760
0.672530
0.679370
0.683280
0.686220
0.686220
0.685240
0.681330
0.676440
0.670580
0.661780
0.650050
0.636360
0.619750
0.601170
0.581620
0.562070
0.542520
0.525900
0.511240
0.496580
0.483870
0.472140
0.463340
0.455520
0.449660
0.444770
0.440860
0.436950
0.433040
0.430110
0.426200
0.423260
0.419350
0.415440
0.410560
0.404690
0.398830
0.392960
0.387100
0.381230
0.374390
0.368520
0.362660
0.357770
0.352880
0.346040
0.340180
0.335290
0.329420
0.324540
0.319650
0.314760
0.309870
0.304990
0.301080
0.297170
0.295210
0.291300
0.288370
0.284460
0.281520
0.278590
0.275660
0.272730
0.270770
0.268820
0.266860
0.265880
0.265880
0.264910
0.262950
0.261000
0.259040
0.256110
0.254150
0.252200
0.250240
0.248290
0.246330
0.245360
0.246330
0.250240
0.257090
0.270770
0.290320
0.317690
0.351910
0.391010
0.432060
0.473120
0.513200
0.549360
0.576740
0.599220
0.619750
0.637340
0.652000
0.663730
0.672530
0.679370
0.683280
0.686220
0.687190
0.687190
0.684260
0.680350
0.673510
0.665690
0.655910
0.643210
0.627570
0.610950
0.592380
0.572830
0.553270
0.534700
0.517110
0.501470
0.489740
0.478010
0.467250
0.459430
0.452590
0.447700
0.443790
0.439880
0.435970
0.433040
0.430110
0.426200
0.422290
0.419350
0.414470
0.409580
0.403710
0.396870
0.391010
0.384160
0.377320
0.370480
0.367550
0.366570
0.363640
0.359730
0.354840
0.348000
0.341150
0.334310
0.328450
0.321600
0.315740
0.309870
0.304010
0.298140
0.292280
0.289350
0.286410
0.282500
0.278590
0.275660
0.271750
0.268820
0.265880
0.262950
0.260020
0.257090
0.254150
0.253180
0.252200
0.251220
0.249270
0.247310
0.244380
0.242420
0.239490
0.236560
0.234600
0.233630
0.235580
0.243400
0.254150
0.269790
0.295210
0.328450
0.368520
0.412510
0.459430
0.505380
0.547410
0.584560
0.616810
0.643210
0.662760
0.675460
0.687190
0.696970
0.704790
0.709680
0.712610
0.714570
0.714570
0.712610
0.709680
0.702830
0.694040
0.683280
0.670580
0.654940
0.635390
0.614860
0.592380
0.569890
0.548390
0.527860
0.509290
0.492670
0.478980
0.469210
0.461390
0.454550
0.449660
0.444770
0.440860
0.437930
0.434020
0.430110
0.426200
0.421310
0.415440
0.410560
0.405670
0.399800
0.392960
0.386120
0.379280
0.371460
0.364610
0.357770
0.350930
0.343110
0.336270
0.329420
0.324540
0.319650
0.313780
0.307920
0.302050
0.295210
0.289350
0.283480
0.278590
0.272730
0.267840
0.262950
0.259040
0.257090
0.253180
0.249270
0.245360
0.242420
0.238510
0.234600
0.231670
0.228740
0.225810
0.222870
0.220920
0.219940
0.219940
0.219940
0.218960
0.218960
0.217990
0.217990
0.219940
0.224830
0.234600
0.252200
0.277610
0.306940
0.339200
0.382210
0.431090
0.482890
0.533720
0.582600
0.625610
0.662760
0.695010
0.721410
0.741940
0.759530
0.770280
0.777130
0.783970
0.789830
0.793740
0.795700
0.794720
0.792770
0.786900
0.779080
0.767350
0.752690
0.737050
0.719450
0.699900
0.678400
0.655910
0.633430
0.612900
0.594330
0.577710
0.563050
0.552300
0.542520
0.535680
0.529810
0.525900
0.521020
0.517110
0.513200
0.508310
0.503420
0.498530
0.491690
0.485830
0.478980
0.471160
0.465300
0.458460
0.451610
0.443790
0.435970
0.428150
0.420330
0.411530
0.403710
0.395890
0.388070
0.381230
0.377320
0.376340
0.379280
0.388070
0.403710
0.426200
0.455520
0.489740
0.526880
0.565000
0.601170
0.635390
0.664710
0.686220
0.701860
0.716520
0.728250
0.737050
0.742910
0.746820
0.747800
0.747800
0.744870
0.739980
0.733140
0.722390
0.711630
0.697950
0.680350
0.660800
0.638320
0.614860
0.590420
0.566960
0.543500
0.522970
0.504400
0.488760
0.476050
0.466280
0.457480
0.450640
0.444770
0.439880
0.435970
0.432060
0.428150
0.423260
0.419350
0.414470
0.408600
0.403710
0.398830
0.393940
0.387100
0.383190
0.381230
0.378300
0.373410
0.368520
0.362660
0.356790
0.350930
0.347020
0.343110
0.338220
0.334310
0.329420
0.324540
0.319650
0.315740
0.311830
0.307920
0.304010
0.301080
0.298140
0.296190
0.294230
0.293260
0.291300
0.289350
0.286410
0.284460
0.282500
0.280550
0.279570
0.278590
0.276640
0.276640
0.276640
0.276640
0.275660
0.274680
0.273700
0.271750
0.270770
0.269790
0.268820
0.268820
0.267840
0.266860
0.266860
0.267840
0.267840
0.267840
0.266860
0.266860
0.265880
0.264910
0.263930
0.262950
0.261970
0.261000
0.260020
0.260020
0.259040
0.259040
0.261000
0.266860
0.279570
0.299120
0.328450
0.364610
0.407620
0.455520
0.497560
0.535680
0.576740
0.615840
0.651030
0.681330
0.706740
0.728250
0.744870
0.759530
0.770280
0.779080
0.784950
0.787880
0.788860
0.787880
0.786900
0.782990
0.777130
0.769310
0.757580
0.743890
0.727270
0.708700
0.688170
0.668620
0.650050
0.630500
0.610950
0.592380
0.574780
0.560120
0.547410
0.536660
0.527860
0.520040
0.514170
0.508310
0.504400
0.500490
0.495600
0.490710
0.484850
0.478980
0.473120
0.466280
0.459430
0.452590
0.445750
0.438910
0.433040
0.427170
0.420330
0.413490
0.406650
0.400780
0.393940
0.388070
0.381230
0.375370
0.370480
0.364610
0.359730
0.355820
0.352880
0.348970
0.344090
0.340180
0.335290
0.331380
0.327470
0.323560
0.320630
0.317690
0.314760
0.312810
0.310850
0.308900
0.306940
0.304010
0.301080
0.298140
0.294230
0.291300
0.287390
0.284460
0.281520
0.277610
0.275660
0.273700
0.270770
0.268820
0.266860
0.267840
0.272730
0.283480
0.301080
0.325510
0.356790
0.393940
0.427170
0.459430
0.495600
0.529810
0.561090
0.588470
0.611930
0.629520
0.644180
0.654940
0.662760
0.668620
0.672530
0.673510
0.672530
0.670580
0.667640
0.663730
0.655910
0.647120
0.635390
0.620720
0.604110
0.586510
0.566960
0.548390
0.531770
0.514170
0.497560
0.481920
0.467250
0.455520
0.445750
0.437930
0.432060
0.427170
0.423260
0.419350
0.416420
0.413490
0.410560
0.406650
0.401760
0.396870
0.391980
0.386120
0.380250
0.374390
0.367550
0.361680
0.356790
0.351910
0.347020
0.342130
0.336270
0.331380
0.325510
0.320630
0.315740
0.310850
0.305960
0.301080
0.297170
0.293260
0.291300
0.287390
0.284460
0.281520
0.277610
0.274680
0.271750
0.269790
0.266860
0.264910
0.261970
0.261000
0.260020
0.258060
0.256110
0.254150
0.251220
0.249270
0.247310
0.244380
0.241450
0.239490
0.240470
0.245360
0.248290
0.254150
0.261970
0.274680
0.293260
0.318670
0.348000
0.382210
0.416420
0.449660
0.480940
0.508310
0.528840
0.544480
0.558160
0.569890
0.577710
0.583580
0.587490
0.589440
0.590420
0.589440
0.587490
0.584560
0.579670
0.573800
0.566960
0.558160
0.548390
0.535680
0.521990
0.508310
0.494620
0.480940
0.469210
0.459430
0.452590
0.446730
0.442820
0.440860
0.439880
0.439880
0.439880
0.440860
0.441840
0.442820
0.442820
0.442820
0.442820
0.441840
0.440860
0.438910
0.436950
0.435000
0.432060
0.429130
0.426200
0.423260
0.419350
0.416420
0.412510
0.408600
0.405670
0.402740
0.399800
0.395890
0.392960
0.389050
0.385140
0.381230
0.377320
0.373410
0.369500
0.366570
0.363640
0.361680
0.358750
0.355820
0.352880
0.350930
0.348970
0.347020
0.345060
0.343110
0.340180
0.338220
0.336270
0.335290
0.334310
0.333330
0.331380
0.329420
0.327470
0.324540
0.322580
0.320630
0.320630
0.323560
0.330400
0.341150
0.354840
0.376340
0.402740
0.434020
0.467250
0.501470
0.533720
0.563050
0.587490
0.608990
0.626590
0.640270
0.649070
0.654940
0.660800
0.664710
0.668620
0.670580
0.671550
0.670580
0.669600
0.666670
0.661780
0.655910
0.648090
0.639300
0.628540
0.615840
0.601170
0.585530
0.569890
0.553270
0.537630
0.521990
0.509290
0.497560
0.487780
0.479960
0.474100
0.469210
0.465300
0.461390
0.458460
0.455520
0.452590
0.449660
0.446730
0.442820
0.438910
0.435000
0.432060
0.427170
0.422290
0.417400
0.412510
0.407620
0.402740
0.397850
0.392960
0.388070
0.383190
0.378300
0.374390
0.371460
0.367550
0.363640
0.358750
0.354840
0.349950
0.346040
0.341150
0.338220
0.337240
0.338220
0.342130
0.348970
0.361680
0.380250
0.403710
0.431090
0.460410
0.490710
0.519060
0.545450
0.567940
0.587490
0.603130
0.612900
0.619750
0.626590
0.631480
0.634410
0.637340
0.637340
0.637340
0.635390
0.632450
0.627570
0.620720
0.612900
0.603130
0.592380
0.578690
0.564030
0.548390
0.531770
0.516130
0.500490
0.485830
0.473120
0.462370
0.453570
0.446730
0.441840
0.437930
0.434020
0.431090
0.429130
0.426200
0.423260
0.421310
0.417400
0.414470
0.410560
0.407620
0.404690
0.400780
0.395890
0.391980
0.387100
0.382210
0.377320
0.372430
0.367550
0.362660
0.357770
0.352880
0.348970
0.346040
0.343110
0.339200
0.335290
0.331380
0.328450
0.324540
0.321600
0.318670
0.315740
0.312810
0.311830
0.309870
0.308900
0.306940
0.304990
0.305960
0.307920
0.308900
0.307920
0.306940
0.305960
0.304010
0.304010
0.304010
0.303030
0.302050
0.301080
0.300100
0.299120
0.298140
0.297170
0.297170
0.296190
0.296190
0.295210
0.296190
0.296190
0.296190
0.295210
0.294230
0.293260
0.291300
0.289350
0.287390
0.284460
0.282500
0.280550
0.279570
0.280550
0.283480
0.290320
0.303030
0.323560
0.352880
0.389050
0.430110
0.475070
0.519060
0.561090
0.599220
0.628540
0.651030
0.672530
0.691100
0.705770
0.717500
0.726300
0.733140
0.738030
0.740960
0.741940
0.741940
0.739980
0.735090
0.729230
0.721410
0.711630
0.698920
0.684260
0.667640
0.649070
0.629520
0.609970
0.590420
0.572830
0.558160
0.546430
0.534700
0.524930
0.516130
0.510260
0.504400
0.500490
0.496580
0.492670
0.488760
0.484850
0.480940
0.477030
0.473120
0.468230
0.462370
0.456500
0.449660
0.443790
0.436950
0.430110
0.424240
0.417400
0.410560
0.405670
0.400780
0.395890
0.390030
0.385140
0.379280
0.374390
0.368520
0.363640
0.359730
0.354840
0.350930
0.348000
0.345060
0.342130
0.339200
0.336270
0.332360
0.328450
0.324540
0.320630
0.316720
0.312810
0.309870
0.306940
0.304990
0.303030
0.301080
0.298140
0.296190
0.297170
0.303030
0.313780
0.331380
0.355820
0.387100
0.421310
0.453570
0.483870
0.516130
0.547410
0.574780
0.598240
0.616810
0.630500
0.641250
0.648090
0.652000
0.653960
0.653960
0.652980
0.649070
0.645160
0.639300
0.630500
0.619750
0.607040
0.592380
0.574780
0.557180
0.537630
0.519060
0.503420
0.489740
0.477030
0.464320
0.454550
0.447700
0.442820
0.440860
0.439880
0.439880
0.440860
0.442820
0.443790
0.444770
0.444770
0.445750
0.445750
0.445750
0.444770
0.443790
0.442820
0.441840
0.439880
0.438910
0.436950
0.435970
0.435000
0.434020
0.432060
0.430110
0.429130
0.427170
0.425220
0.423260
0.421310
0.419350
0.417400
0.415440
0.413490
0.412510
0.410560
0.408600
0.406650
0.404690
0.401760
0.399800
0.396870
0.392960
0.390030
0.387100
0.384160
0.382210
0.379280
0.377320
0.376340
0.378300
0.384160
0.395890
0.415440
0.440860
0.472140
0.508310
0.546430
0.579670
0.608020
0.638320
0.666670
0.691100
0.711630
0.728250
0.740960
0.749760
0.756600
0.761490
0.764420
0.764420
0.763440
0.761490
0.758550
0.753670
0.747800
0.739000
0.727270
0.713590
0.697950
0.679370
0.660800
0.643210
0.625610
0.608020
0.591400
0.574780
0.561090
0.549360
0.538610
0.530790
0.523950
0.518080
0.514170
0.503420
0.491690
0.483870
0.478010
0.473120
0.467250
0.462370
0.457480
0.451610
0.445750
0.438910
0.433040
0.426200
0.420330
0.415440
0.409580
0.402740
0.396870
0.390030
0.384160
0.378300
0.373410
0.367550
0.362660
0.356790
0.351910
0.348000
0.345060
0.340180
0.336270
0.332360
0.328450
0.324540
0.320630
0.317690
0.314760
0.311830
0.308900
0.306940
0.305960
0.304010
0.302050
0.300100
0.299120
0.297170
0.295210
0.293260
0.292280
0.290320
0.289350
0.288370
0.288370
0.288370
0.287390
0.286410
0.285430
0.283480
0.281520
0.280550
0.278590
0.277610
0.275660
0.273700
0.272730
0.272730
0.272730
0.273700
0.278590
0.289350
0.305960
0.331380
0.364610
0.403710
0.447700
0.492670
0.536660
0.572830
0.603130
0.633430
0.660800
0.685240
0.704790
0.721410
0.735090
0.745850
0.755620
0.762460
0.767350
0.769310
0.769310
0.768330
0.766370
0.762460
0.756600
0.747800
0.736070
0.721410
0.704790
0.686220
0.665690
0.645160
0.626590
0.609970
0.592380
0.575760
0.561090
0.548390
0.538610
0.530790
0.523950
0.518080
0.514170
0.509290
0.505380
0.501470
0.496580
0.491690
0.486800
0.480940
0.475070
0.469210
0.462370
0.455520
0.448680
0.440860
0.434020
0.428150
0.422290
0.417400
0.412510
0.411530
0.413490
0.420330
0.432060
0.449660
0.471160
0.496580
0.522970
0.546430
0.566960
0.587490
0.606060
0.622680
0.634410
0.643210
0.648090
0.650050
0.649070
0.645160
0.638320
0.628540
0.616810
0.604110
0.588470
0.570870
0.550340
0.529810
0.510260
0.490710
0.473120
0.457480
0.443790
0.434020
0.426200
0.421310
0.416420
0.413490
0.411530
0.409580
0.407620
0.405670
0.404690
0.401760
0.399800
0.395890
0.391980
0.389050
0.385140
0.380250
0.375370
0.369500
0.363640
0.357770
0.351910
0.346040
0.340180
0.334310
0.328450
0.323560
0.319650
0.315740
0.310850
0.305960
0.301080
0.296190
0.291300
0.286410
0.281520
0.277610
0.272730
0.268820
0.265880
0.263930
0.261970
0.259040
0.256110
0.253180
0.250240
0.248290
0.246330
0.244380
0.242420
0.240470
0.239490
0.239490
0.238510
0.237540
0.235580
0.234600
0.232650
0.231670
0.229720
0.228740
0.227760
0.226780
0.226780
0.227760
0.227760
0.226780
0.226780
0.225810
0.224830
0.223850
0.222870
0.221900
0.220920
0.219940
0.218960
0.218960
0.218960
0.217990
0.216030
0.215050
0.214080
0.215050
0.220920
0.234600
0.255130
0.285430
0.324540
0.363640
0.403710
0.448680
0.495600
0.539590
0.578690
0.608990
0.630500
0.648090
0.661780
0.670580
0.677420
0.681330
0.681330
0.680350
0.678400
0.675460
0.670580
0.664710
0.655910
0.646140
0.633430
0.619750
0.604110
0.587490
0.571850
0.558160
0.542520
0.528840
0.515150
0.504400
0.494620
0.487780
0.481920
0.477030
0.473120
0.470190
0.467250
0.465300
0.462370
0.459430
0.456500
0.452590
0.448680
0.443790
0.438910
0.434020
0.429130
0.424240
0.419350
0.416420
0.413490
0.409580
0.406650
0.403710
0.400780
0.398830
0.396870
0.394920
0.392960
0.391010
0.390030
0.388070
0.388070
0.387100
0.386120
0.386120
0.385140
0.384160
0.384160
0.383190
0.382210
0.382210
0.382210
0.382210
0.382210
0.382210
0.383190
0.383190
0.383190
0.383190
0.384160
0.384160
0.384160
0.384160
0.383190
0.382210
0.382210
0.381230
0.381230
0.380250
0.380250
0.379280
0.378300
0.377320
0.376340
0.376340
0.378300
0.383190
0.393940
0.406650
0.423260
0.446730
0.477030
0.511240
0.546430
0.581620
0.614860
0.644180
0.670580
0.691100
0.708700
0.722390
0.731180
0.737050
0.741940
0.745850
0.749760
0.751710
0.751710
0.750730
0.748780
0.744870
0.739000
0.730210
0.720430
0.709680
0.695990
0.680350
0.662760
0.645160
0.626590
0.608990
0.592380
0.577710
0.565000
0.553270
0.544480
0.536660
0.530790
0.525900
0.521020
0.517110
0.513200
0.509290
0.505380
0.500490
0.495600
0.490710
0.485830
0.480940
0.477030
0.472140
0.466280
0.461390
0.455520
0.449660
0.443790
0.437930
0.432060
0.426200
0.420330
0.415440
0.410560
0.406650
0.402740
0.397850
0.393940
0.389050
0.385140
0.380250
0.376340
0.373410
0.369500
0.366570
0.363640
0.361680
0.359730
0.357770
0.354840
0.352880
0.350930
0.348970
0.346040
0.344090
0.342130
0.340180
0.339200
0.339200
0.337240
0.336270
0.334310
0.332360
0.330400
0.329420
0.331380
0.337240
0.348970
0.366570
0.391010
0.416420
0.443790
0.478010
0.514170
0.551320
0.585530
0.615840
0.643210
0.666670
0.685240
0.700880
0.714570
0.723360
0.729230
0.735090
0.740960
0.744870
0.747800
0.749760
0.749760
0.748780
0.744870
0.739000
0.730210
0.719450
0.707720
0.694040
0.678400
0.660800
0.641250
0.622680
0.604110
0.586510
0.569890
0.556210
0.543500
0.533720
0.525900
0.520040
0.515150
0.510260
0.505380
0.501470
0.497560
0.493650
0.488760
0.483870
0.478980
0.473120
0.467250
0.462370
0.457480
0.452590
0.446730
0.439880
0.434020
0.427170
0.421310
0.414470
0.409580
0.403710
0.398830
0.377320
0.348000
0.330400
0.319650
0.310850
0.304010
0.298140
0.292280
0.287390
0.283480
0.278590
0.275660
0.271750
0.268820
0.266860
0.264910
0.261970
0.260020
0.257090
0.254150
0.252200
0.249270
0.246330
0.244380
0.241450
0.239490
0.238510
0.236560
0.235580
0.236560
0.240470
0.250240
0.267840
0.292280
0.323560
0.360700
0.402740
0.445750
0.483870
0.516130
0.550340
0.580650
0.608020
0.630500
0.649070
0.663730
0.674490
0.683280
0.689150
0.694040
0.695990
0.695010
0.694040
0.692080
0.688170
0.682310
0.673510
0.661780
0.648090
0.631480
0.611930
0.591400
0.569890
0.550340
0.532750
0.514170
0.496580
0.480940
0.468230
0.456500
0.447700
0.439880
0.433040
0.428150
0.422290
0.418380
0.414470
0.409580
0.403710
0.398830
0.391980
0.386120
0.379280
0.371460
0.364610
0.356790
0.349950
0.342130
0.336270
0.330400
0.325510
0.320630
0.318670
0.320630
0.327470
0.340180
0.358750
0.381230
0.407620
0.435000
0.459430
0.479960
0.501470
0.521020
0.536660
0.548390
0.556210
0.560120
0.561090
0.559140
0.554250
0.547410
0.536660
0.525900
0.512220
0.496580
0.477030
0.456500
0.435000
0.413490
0.392960
0.374390
0.357770
0.344090
0.333330
0.326490
0.321600
0.317690
0.315740
0.313780
0.312810
0.310850
0.309870
0.307920
0.305960
0.303030
0.300100
0.296190
0.293260
0.290320
0.285430
0.280550
0.275660
0.270770
0.265880
0.261000
0.256110
0.251220
0.246330
0.241450
0.238510
0.235580
0.231670
0.227760
0.222870
0.218960
0.215050
0.211140
0.206260
0.202350
0.198440
0.194530
0.192570
0.190620
0.188660
0.185730
0.182800
0.179860
0.177910
0.174980
0.173020
0.170090
0.168130
0.166180
0.163250
0.163250
0.163250
0.162270
0.160310
0.159340
0.158360
0.157380
0.156400
0.155430
0.154450
0.154450
0.154450
0.155430
0.157380
0.158360
0.159340
0.159340
0.160310
0.162270
0.164220
0.166180
0.168130
0.170090
0.172040
0.174000
0.175950
0.178890
0.181820
0.186710
0.194530
0.209190
0.231670
0.261970
0.302050
0.348970
0.400780
0.454550
0.500490
0.540570
0.580650
0.617790
0.649070
0.675460
0.695990
0.712610
0.724340
0.733140
0.739000
0.742910
0.743890
0.742910
0.739000
0.734120
0.727270
0.717500
0.705770
0.692080
0.675460
0.657870
0.639300
0.619750
0.601170
0.584560
0.570870
0.557180
0.544480
0.533720
0.524930
0.518080
0.512220
0.507330
0.502440
0.498530
0.494620
0.489740
0.485830
0.480940
0.477030
0.471160
0.466280
0.460410
0.467250
0.479960
0.483870
0.482890
0.478980
0.474100
0.469210
0.464320
0.458460
0.452590
0.446730
0.440860
0.435970
0.430110
0.424240
0.419350
0.414470
0.410560
0.407620
0.407620
0.411530
0.419350
0.433040
0.452590
0.477030
0.504400
0.534700
0.564030
0.592380
0.618770
0.641250
0.656890
0.669600
0.680350
0.690130
0.696970
0.702830
0.705770
0.707720
0.708700
0.707720
0.704790
0.700880
0.695010
0.688170
0.678400
0.667640
0.653960
0.638320
0.621700
0.604110
0.585530
0.567940
0.551320
0.535680
0.522970
0.512220
0.503420
0.495600
0.486800
0.480940
0.477030
0.471160
0.468230
0.465300
0.461390
0.458460
0.455520
0.451610
0.448680
0.444770
0.439880
0.435000
0.430110
0.424240
0.418380
0.412510
0.406650
0.400780
0.394920
0.390030
0.385140
0.380250
0.375370
0.369500
0.365590
0.364610
0.366570
0.372430
0.385140
0.403710
0.428150
0.456500
0.483870
0.523950
0.552300
0.579670
0.614860
0.633430
0.649070
0.661780
0.670580
0.678400
0.683280
0.686220
0.687190
0.686220
0.685240
0.679370
0.673510
0.665690
0.654940
0.642230
0.627570
0.610950
0.595310
0.579670
0.562070
0.544480
0.527860
0.512220
0.498530
0.486800
0.477030
0.469210
0.462370
0.457480
0.452590
0.449660
0.447700
0.444770
0.441840
0.438910
0.435000
0.431090
0.427170
0.422290
0.417400
0.412510
0.407620
0.402740
0.398830
0.393940
0.388070
0.382210
0.376340
0.370480
0.365590
0.360700
0.355820
0.349950
0.345060
0.340180
0.337240
0.335290
0.336270
0.340180
0.348970
0.364610
0.386120
0.429130
0.461390
0.495600
0.543500
0.568910
0.589440
0.608990
0.626590
0.641250
0.652000
0.660800
0.667640
0.671550
0.674490
0.675460
0.675460
0.672530
0.669600
0.663730
0.655910
0.646140
0.634410
0.619750
0.603130
0.585530
0.566960
0.548390
0.529810
0.513200
0.499510
0.487780
0.477030
0.468230
0.460410
0.453570
0.448680
0.444770
0.440860
0.437930
0.435000
0.431090
0.428150
0.424240
0.421310
0.417400
0.413490
0.408600
0.403710
0.398830
0.392960
0.387100
0.382210
0.376340
0.371460
0.367550
0.363640
0.359730
0.355820
0.350930
0.347020
0.342130
0.338220
0.334310
0.330400
0.326490
0.323560
0.320630
0.318670
0.317690
0.314760
0.312810
0.310850
0.308900
0.306940
0.304990
0.304010
0.302050
0.300100
0.299120
0.298140
0.298140
0.297170
0.296190
0.294230
0.293260
0.291300
0.289350
0.287390
0.284460
0.282500
0.281520
0.281520
0.277610
0.273700
0.282500
0.303030
0.332360
0.370480
0.414470
0.461390
0.509290
0.554250
0.595310
0.630500
0.656890
0.677420
0.695990
0.711630
0.725320
0.735090
0.743890
0.749760
0.753670
0.755620
0.755620
0.753670
0.748780
0.741940
0.732160
0.719450
0.703810
0.685240
0.664710
0.642230
0.619750
0.597260
0.574780
0.554250
0.536660
0.521990
0.510260
0.500490
0.491690
0.484850
0.478980
0.474100
0.469210
0.464320
0.459430
0.454550
0.448680
0.442820
0.437930
0.432060
0.426200
0.420330
0.413490
0.405670
0.397850
0.391010
0.383190
0.375370
0.368520
0.360700
0.354840
0.349950
0.345060
0.339200
0.333330
0.327470
0.321600
0.315740
0.310850
0.305960
0.301080
0.297170
0.293260
0.290320
0.289350
0.286410
0.283480
0.279570
0.276640
0.272730
0.269790
0.266860
0.263930
0.261000
0.258060
0.256110
0.255130
0.253180
0.250240
0.247310
0.245360
0.245360
0.248290
0.257090
0.271750
0.295210
0.325510
0.357770
0.391010
0.430110
0.472140
0.512220
0.549360
0.582600
0.609970
0.632450
0.651030
0.664710
0.676440
0.684260
0.689150
0.691100
0.693060
0.694040
0.693060
0.690130
0.684260
0.676440
0.664710
0.651030
0.634410
0.615840
0.599220
0.583580
0.565980
0.549360
0.534700
0.521990
0.511240
0.504400
0.499510
0.495600
0.494620
0.493650
0.493650
0.492670
0.491690
0.490710
0.489740
0.486800
0.484850
0.480940
0.478010
0.473120
0.469210
0.464320
0.459430
0.455520
0.451610
0.446730
0.441840
0.436950
0.431090
0.426200
0.421310
0.415440
0.410560
0.406650
0.401760
0.396870
0.393940
0.391010
0.387100
0.383190
0.379280
0.374390
0.370480
0.366570
0.362660
0.358750
0.354840
0.350930
0.348970
0.347020
0.344090
0.341150
0.338220
0.335290
0.335290
0.337240
0.345060
0.359730
0.381230
0.411530
0.446730
0.481920
0.515150
0.554250
0.593350
0.630500
0.663730
0.693060
0.718480
0.739000
0.756600
0.770280
0.781040
0.786900
0.790810
0.793740
0.795700
0.795700
0.794720
0.790810
0.784950
0.775170
0.762460
0.746820
0.728250
0.707720
0.687190
0.667640
0.646140
0.623660
0.602150
0.582600
0.565000
0.549360
0.536660
0.525900
0.517110
0.510260
0.504400
0.499510
0.495600
0.490710
0.485830
0.480940
0.476050
0.470190
0.464320
0.458460
0.451610
0.444770
0.437930
0.432060
0.427170
0.420330
0.413490
0.406650
0.399800
0.393940
0.388070
0.382210
0.376340
0.371460
0.366570
0.362660
0.359730
0.355820
0.350930
0.346040
0.342130
0.337240
0.332360
0.327470
0.323560
0.319650
0.315740
0.311830
0.309870
0.307920
0.305960
0.305960
0.307920
0.314760
0.327470
0.347020
0.373410
0.405670
0.442820
0.481920
0.516130
0.546430
0.577710
0.608020
0.634410
0.657870
0.676440
0.692080
0.704790
0.715540
0.723360
0.728250
0.732160
0.733140
0.732160
0.730210
0.726300
0.720430
0.712610
0.701860
0.688170
0.672530
0.653960
0.633430
0.611930
0.592380
0.574780
0.556210
0.538610
0.521990
0.507330
0.494620
0.484850
0.476050
0.469210
0.463340
0.458460
0.454550
0.450640
0.447700
0.443790
0.438910
0.434020
0.429130
0.423260
0.417400
0.411530
0.405670
0.399800
0.393940
0.389050
0.385140
0.380250
0.376340
0.371460
0.367550
0.362660
0.358750
0.354840
0.351910
0.348970
0.347020
0.345060
0.345060
0.344090
0.343110
0.343110
0.342130
0.341150
0.340180
0.338220
0.336270
0.335290
0.333330
0.331380
0.330400
0.329420
0.327470
0.325510
0.323560
0.321600
0.320630
0.322580
0.328450
0.340180
0.357770
0.382210
0.408600
0.435970
0.471160
0.508310
0.546430
0.582600
0.614860
0.642230
0.665690
0.684260
0.699900
0.711630
0.720430
0.725320
0.728250
0.729230
0.730210
0.729230
0.727270
0.722390
0.715540
0.706740
0.695010
0.681330
0.664710
0.648090
0.630500
0.610950
0.591400
0.570870
0.551320
0.533720
0.518080
0.505380
0.493650
0.484850
0.478010
0.472140
0.468230
0.464320
0.460410
0.456500
0.452590
0.448680
0.443790
0.439880
0.434020
0.429130
0.424240
0.418380
0.413490
0.409580
0.404690
0.399800
0.393940
0.389050
0.384160
0.378300
0.373410
0.368520
0.363640
0.359730
0.355820
0.352880
0.350930
0.348000
0.344090
0.341150
0.338220
0.334310
0.330400
0.327470
0.323560
0.319650
0.315740
0.312810
0.310850
0.308900
0.305960
0.303030
0.299120
0.296190
0.293260
0.291300
0.292280
0.297170
0.307920
0.324540
0.344090
0.367550
0.397850
0.433040
0.471160
0.508310
0.543500
0.575760
0.602150
0.624630
0.643210
0.656890
0.665690
0.671550
0.675460
0.679370
0.680350
0.680350
0.679370
0.676440
0.671550
0.663730
0.653960
0.641250
0.626590
0.610950
0.595310
0.576740
0.557180
0.536660
0.518080
0.500490
0.484850
0.471160
0.460410
0.450640
0.443790
0.437930
0.434020
0.430110
0.426200
0.421310
0.417400
0.413490
0.408600
0.403710
0.397850
0.392960
0.387100
0.381230
0.376340
0.371460
0.366570
0.360700
0.354840
0.348970
0.344090
0.340180
0.339200
0.341150
0.348000
0.359730
0.374390
0.386120
0.400780
0.424240
0.452590
0.481920
0.508310
0.532750
0.552300
0.566960
0.577710
0.584560
0.586510
0.585530
0.580650
0.573800
0.563050
0.550340
0.533720
0.514170
0.492670
0.470190
0.446730
0.423260
0.401760
0.384160
0.369500
0.355820
0.344090
0.335290
0.328450
0.324540
0.320630
0.318670
0.316720
0.314760
0.312810
0.310850
0.309870
0.306940
0.303030
0.299120
0.294230
0.289350
0.283480
0.277610
0.271750
0.265880
0.260020
0.254150
0.249270
0.246330
0.241450
0.236560
0.230690
0.225810
0.220920
0.216030
0.211140
0.206260
0.202350
0.198440
0.196480
0.195500
0.193550
0.191590
0.189640
0.187680
0.186710
0.185730
0.185730
0.185730
0.185730
0.186710
0.188660
0.190620
0.194530
0.197460
0.200390
0.204300
0.208210
0.212120
0.217010
0.220920
0.225810
0.230690
0.235580
0.239490
0.244380
0.248290
0.252200
0.256110
0.259040
0.261970
0.264910
0.266860
0.268820
0.269790
0.270770
0.271750
0.272730
0.274680
0.275660
0.275660
0.275660
0.275660
0.276640
0.279570
0.287390
0.302050
0.324540
0.356790
0.391010
0.428150
0.474100
0.525900
0.576740
0.626590
0.671550
0.710650
0.744870
0.772240
0.794720
0.812320
0.825020
0.832840
0.835780
0.838710
0.839690
0.839690
0.836750
0.830890
0.822090
0.811340
0.796680
0.779080
0.758550
0.738030
0.716520
0.694040
0.669600
0.646140
0.623660
0.603130
0.584560
0.568910
0.554250
0.542520
0.532750
0.524930
0.518080
0.512220
0.506350
0.499510
0.493650
0.486800
0.479960
0.472140
0.465300
0.457480
0.449660
0.440860
0.434020
0.427170
0.419350
0.411530
0.403710
0.395890
0.388070
0.381230
0.374390
0.367550
0.360700
0.353860
0.347020
0.341150
0.337240
0.331380
0.325510
0.320630
0.315740
0.309870
0.304990
0.301080
0.297170
0.293260
0.289350
0.286410
0.284460
0.281520
0.278590
0.275660
0.273700
0.270770
0.267840
0.265880
0.263930
0.261970
0.260020
0.259040
0.258060
0.259040
0.258060
0.258060
0.257090
0.256110
0.254150
0.253180
0.251220
0.250240
0.249270
0.247310
0.247310
0.247310
0.246330
0.245360
0.246330
0.250240
0.260020
0.275660
0.299120
0.331380
0.371460
0.416420
0.464320
0.507330
0.545450
0.585530
0.623660
0.658850
0.689150
0.714570
0.736070
0.753670
0.768330
0.779080
0.787880
0.792770
0.793740
0.795700
0.794720
0.792770
0.788860
0.782010
0.771260
0.758550
0.742910
0.723360
0.701860
0.679370
0.657870
0.636360
0.613880
0.592380
0.571850
0.553270
0.537630
0.521020
0.506350
0.496580
0.488760
0.482890
0.478980
0.475070
0.471160
0.467250
0.463340
0.459430
0.454550
0.450640
0.445750
0.440860
0.435000
0.430110
0.425220
0.420330
0.415440
0.409580
0.404690
0.398830
0.393940
0.389050
0.384160
0.379280
0.374390
0.369500
0.365590
0.363640
0.362660
0.363640
0.368520
0.378300
0.393940
0.413490
0.438910
0.466280
0.495600
0.523950
0.551320
0.572830
0.589440
0.606060
0.619750
0.630500
0.639300
0.644180
0.648090
0.649070
0.649070
0.647120
0.643210
0.637340
0.630500
0.621700
0.611930
0.599220
0.584560
0.568910
0.551320
0.533720
0.516130
0.499510
0.484850
0.471160
0.459430
0.450640
0.442820
0.435970
0.430110
0.425220
0.421310
0.418380
0.414470
0.411530
0.408600
0.405670
0.401760
0.397850
0.394920
0.391010
0.386120
0.381230
0.376340
0.371460
0.365590
0.360700
0.354840
0.349950
0.344090
0.340180
0.337240
0.333330
0.328450
0.324540
0.320630
0.315740
0.311830
0.307920
0.304010
0.301080
0.297170
0.294230
0.291300
0.289350
0.287390
0.284460
0.282500
0.279570
0.277610
0.275660
0.273700
0.272730
0.270770
0.269790
0.268820
0.267840
0.266860
0.265880
0.263930
0.261970
0.261000
0.259040
0.257090
0.256110
0.254150
0.252200
0.250240
0.250240
0.252200
0.257090
0.265880
0.280550
0.302050
0.329420
0.362660
0.399800
0.437930
0.475070
0.509290
0.535680
0.557180
0.577710
0.594330
0.608020
0.618770
0.626590
0.632450
0.636360
0.638320
0.638320
0.636360
0.633430
0.628540
0.621700
0.612900
0.603130
0.590420
0.575760
0.559140
0.542520
0.525900
0.509290
0.493650
0.478980
0.468230
0.459430
0.450640
0.444770
0.438910
0.435000
0.432060
0.429130
0.426200
0.424240
0.421310
0.418380
0.415440
0.412510
0.409580
0.406650
0.402740
0.398830
0.395890
0.391980
0.388070
0.384160
0.380250
0.377320
0.374390
0.371460
0.369500
0.367550
0.365590
0.363640
0.361680
0.359730
0.358750
0.356790
0.355820
0.354840
0.353860
0.353860
0.352880
0.352880
0.352880
0.351910
0.351910
0.350930
0.349950
0.349950
0.348970
0.348970
0.348000
0.348000
0.348000
0.348000
0.348000
0.347020
0.346040
0.346040
0.345060
0.343110
0.342130
0.341150
0.339200
0.338220
0.336270
0.335290
0.335290
0.335290
0.335290
0.338220
0.345060
0.357770
0.375370
0.398830
0.428150
0.460410
0.495600
0.525900
0.552300
0.580650
0.607040
0.630500
0.650050
0.666670
0.680350
0.691100
0.698920
0.704790
0.708700
0.710650
0.710650
0.718480
0.730210
0.733140
0.731180
0.725320
0.716520
0.704790
0.690130
0.673510
0.655910
0.637340
0.619750
0.604110
0.588470
0.572830
0.558160
0.546430
0.535680
0.525900
0.519060
0.512220
0.506350
0.501470
0.497560
0.493650
0.488760
0.483870
0.478980
0.473120
0.466280
0.459430
0.452590
0.444770
0.436950
0.428150
0.420330
0.413490
0.406650
0.399800
0.391980
0.385140
0.377320
0.370480
0.363640
0.358750
0.355820
0.355820
0.359730
0.366570
0.378300
0.395890
0.419350
0.447700
0.478010
0.510260
0.541540
0.569890
0.595310
0.617790
0.635390
0.649070
0.658850
0.663730
0.667640
0.670580
0.670580
0.669600
0.666670
0.662760
0.655910
0.647120
0.636360
0.622680
0.608990
0.594330
0.577710
0.558160
0.538610
0.519060
0.500490
0.483870
0.468230
0.455520
0.444770
0.435970
0.428150
0.423260
0.420330
0.416420
0.414470
0.411530
0.408600
0.405670
0.402740
0.399800
0.395890
0.391980
0.388070
0.384160
0.381230
0.377320
0.373410
0.368520
0.364610
0.359730
0.354840
0.350930
0.346040
0.342130
0.337240
0.333330
0.329420
0.327470
0.323560
0.319650
0.316720
0.312810
0.309870
0.306940
0.304010
0.301080
0.298140
0.296190
0.295210
0.294230
0.293260
0.291300
0.290320
0.288370
0.286410
0.284460
0.282500
0.280550
0.278590
0.276640
0.275660
0.275660
0.275660
0.275660
0.275660
0.276640
0.276640
0.276640
0.276640
0.276640
0.276640
0.276640
0.276640
0.277610
0.278590
0.279570
0.280550
0.281520
0.281520
0.282500
0.282500
0.282500
0.283480
0.283480
0.283480
0.283480
0.284460
0.285430
0.285430
0.287390
0.290320
0.297170
0.308900
0.327470
0.354840
0.388070
0.428150
0.471160
0.510260
0.546430
0.584560
0.620720
0.653960
0.682310
0.706740
0.726300
0.742910
0.755620
0.765400
0.772240
0.777130
0.778100
0.777130
0.776150
0.773220
0.767350
0.760510
0.750730
0.739000
0.725320
0.708700
0.690130
0.669600
0.652000
0.634410
0.614860
0.597260
0.579670
0.565000
0.551320
0.540570
0.530790
0.523950
0.517110
0.511240
0.507330
0.502440
0.497560
0.492670
0.487780
0.481920
0.476050
0.469210
0.462370
0.455520
0.448680
0.441840
0.434020
0.428150
0.422290
0.416420
0.410560
0.403710
0.397850
0.392960
0.389050
0.389050
0.391980
0.399800
0.412510
0.426200
0.442820
0.464320
0.487780
0.511240
0.534700
0.555230
0.572830
0.586510
0.596290
0.603130
0.606060
0.606060
0.602150
0.597260
0.588470
0.577710
0.564030
0.549360
0.531770
0.501470
0.469210
0.448680
0.430110
0.412510
0.397850
0.387100
0.376340
0.366570
0.359730
0.352880
0.348970
0.345060
0.342130
0.340180
0.337240
0.334310
0.331380
0.329420
0.326490
0.323560
0.319650
0.314760
0.309870
0.304990
0.300100
0.295210
0.289350
0.284460
0.279570
0.275660
0.272730
0.268820
0.265880
0.261970
0.258060
0.254150
0.251220
0.247310
0.244380
0.241450
0.238510
0.235580
0.233630
0.233630
0.231670
0.230690
0.228740
0.227760
0.225810
0.224830
0.222870
0.221900
0.220920
0.219940
0.220920
0.220920
0.220920
0.220920
0.220920
0.219940
0.219940
0.219940
0.219940
0.219940
0.221900
0.222870
0.224830
0.226780
0.229720
0.231670
0.233630
0.236560
0.238510
0.241450
0.244380
0.247310
0.250240
0.253180
0.257090
0.260020
0.263930
0.267840
0.271750
0.274680
0.277610
0.280550
0.283480
0.286410
0.288370
0.290320
0.291300
0.293260
0.296190
0.301080
0.308900
0.323560
0.345060
0.373410
0.408600
0.448680
0.492670
0.536660
0.578690
0.616810
0.647120
0.670580
0.693060
0.711630
0.727270
0.739980
0.747800
0.753670
0.756600
0.757580
0.755620
0.752690
0.746820
0.739980
0.731180
0.720430
0.708700
0.694040
0.678400
0.661780
0.644180
0.626590
0.609970
0.590420
0.574780
0.565000
0.556210
0.547410
0.539590
0.532750
0.527860
0.522970
0.518080
0.514170
0.509290
0.504400
0.499510
0.494620
0.489740
0.484850
0.478980
0.474100
0.468230
0.461390
0.455520
0.449660
0.442820
0.436950
0.430110
0.424240
0.419350
0.414470
0.408600
0.402740
0.397850
0.391980
0.387100
0.381230
0.376340
0.371460
0.366570
0.361680
0.357770
0.353860
0.350930
0.347020
0.343110
0.339200
0.336270
0.333330
0.329420
0.327470
0.324540
0.321600
0.319650
0.318670
0.317690
0.315740
0.314760
0.312810
0.310850
0.309870
0.307920
0.306940
0.305960
0.304010
0.303030
0.302050
0.302050
0.301080
0.300100
0.299120
0.297170
0.295210
0.294230
0.293260
0.295210
0.302050
0.313780
0.332360
0.352880
0.377320
0.409580
0.446730
0.486800
0.525900
0.562070
0.596290
0.625610
0.651030
0.672530
0.690130
0.702830
0.711630
0.719450
0.727270
0.733140
0.738030
0.740960
0.741940
0.741940
0.739980
0.736070
0.729230
0.720430
0.709680
0.697950
0.683280
0.666670
0.648090
0.628540
0.609970
0.590420
0.572830
0.556210
0.541540
0.528840
0.519060
0.511240
0.503420
0.497560
0.492670
0.487780
0.482890
0.478010
0.473120
0.468230
0.463340
0.457480
0.451610
0.446730
0.442820
0.441840
0.439880
0.435970
0.430110
0.425220
0.419350
0.413490
0.407620
0.402740
0.396870
0.391980
0.388070
0.384160
0.379280
0.374390
0.369500
0.365590
0.360700
0.356790
0.352880
0.348970
0.346040
0.342130
0.340180
0.338220
0.336270
0.334310
0.332360
0.330400
0.327470
0.325510
0.323560
0.320630
0.318670
0.316720
0.315740
0.314760
0.313780
0.311830
0.309870
0.308900
0.310850
0.314760
0.323560
0.338220
0.357770
0.384160
0.413490
0.440860
0.467250
0.496580
0.525900
0.552300
0.574780
0.594330
0.609970
0.621700
0.631480
0.637340
0.642230
0.644180
0.644180
0.644180
0.643210
0.642230
0.639300
0.634410
0.628540
0.619750
0.608990
0.596290
0.582600
0.566960
0.552300
0.537630
0.521990
0.507330
0.492670
0.478980
0.467250
0.457480
0.448680
0.442820
0.436950
0.433040
0.429130
0.426200
0.423260
0.420330
0.417400
0.413490
0.408600
0.404690
0.399800
0.394920
0.390030
0.384160
0.379280
0.374390
0.370480
0.365590
0.360700
0.354840
0.349950
0.345060
0.340180
0.335290
0.330400
0.325510
0.320630
0.317690
0.314760
0.311830
0.308900
0.304990
0.302050
0.299120
0.295210
0.292280
0.290320
0.287390
0.285430
0.283480
0.282500
0.281520
0.280550
0.278590
0.276640
0.274680
0.272730
0.271750
0.269790
0.267840
0.266860
0.264910
0.262950
0.262950
0.261000
0.258060
0.257090
0.258060
0.263930
0.273700
0.289350
0.311830
0.339200
0.369500
0.397850
0.423260
0.450640
0.476050
0.499510
0.518080
0.532750
0.544480
0.552300
0.558160
0.561090
0.563050
0.563050
0.561090
0.559140
0.556210
0.552300
0.546430
0.539590
0.530790
0.521020
0.509290
0.496580
0.483870
0.470190
0.459430
0.449660
0.440860
0.433040
0.426200
0.422290
0.419350
0.418380
0.418380
0.419350
0.420330
0.421310
0.422290
0.422290
0.422290
0.422290
0.421310
0.420330
0.419350
0.418380
0.416420
0.414470
0.412510
0.410560
0.407620
0.406650
0.404690
0.402740
0.400780
0.399800
0.399800
0.402740
0.409580
0.420330
0.435000
0.453570
0.475070
0.497560
0.518080
0.534700
0.552300
0.568910
0.582600
0.593350
0.601170
0.606060
0.608990
0.609970
0.609970
0.607040
0.604110
0.599220
0.593350
0.585530
0.575760
0.565000
0.552300
0.538610
0.523950
0.509290
0.494620
0.479960
0.467250
0.456500
0.448680
0.440860
0.434020
0.428150
0.424240
0.420330
0.418380
0.416420
0.414470
0.413490
0.411530
0.410560
0.408600
0.406650
0.403710
0.400780
0.396870
0.392960
0.389050
0.390030
0.394920
0.395890
0.393940
0.390030
0.387100
0.383190
0.379280
0.374390
0.369500
0.365590
0.363640
0.364610
0.371460
0.383190
0.402740
0.428150
0.454550
0.480940
0.512220
0.544480
0.575760
0.602150
0.625610
0.644180
0.658850
0.669600
0.678400
0.683280
0.687190
0.688170
0.688170
0.686220
0.683280
0.679370
0.674490
0.667640
0.658850
0.648090
0.634410
0.619750
0.603130
0.587490
0.571850
0.555230
0.538610
0.521990
0.507330
0.494620
0.482890
0.475070
0.468230
0.463340
0.459430
0.455520
0.453570
0.451610
0.449660
0.447700
0.444770
0.441840
0.438910
0.435000
0.431090
0.426200
0.421310
0.415440
0.411530
0.406650
0.401760
0.396870
0.391010
0.386120
0.381230
0.375370
0.369500
0.364610
0.358750
0.355820
0.354840
0.356790
0.363640
0.376340
0.395890
0.422290
0.452590
0.485830
0.519060
0.551320
0.579670
0.603130
0.622680
0.636360
0.645160
0.652980
0.658850
0.662760
0.664710
0.665690
0.665690
0.663730
0.660800
0.655910
0.650050
0.642230
0.632450
0.622680
0.609970
0.594330
0.577710
0.560120
0.542520
0.525900
0.509290
0.494620
0.482890
0.472140
0.465300
0.459430
0.454550
0.451610
0.448680
0.445750
0.442820
0.440860
0.437930
0.435000
0.432060
0.428150
0.424240
0.422290
0.418380
0.414470
0.409580
0.404690
0.398830
0.393940
0.388070
0.383190
0.378300
0.373410
0.368520
0.364610
0.360700
0.356790
0.352880
0.348970
0.345060
0.341150
0.337240
0.333330
0.330400
0.326490
0.323560
0.321600
0.320630
0.318670
0.316720
0.314760
0.312810
0.310850
0.308900
0.307920
0.306940
0.305960
0.304990
0.304010
0.303030
0.304010
0.303030
0.302050
0.301080
0.300100
0.299120
0.297170
0.295210
0.294230
0.293260
0.295210
0.300100
0.308900
0.324540
0.348970
0.380250
0.418380
0.461390
0.504400
0.546430
0.584560
0.617790
0.645160
0.666670
0.682310
0.693060
0.702830
0.710650
0.716520
0.720430
0.724340
0.725320
0.726300
0.725320
0.722390
0.717500
0.710650
0.702830
0.692080
0.679370
0.663730
0.647120
0.628540
0.609970
0.592380
0.574780
0.559140
0.545450
0.533720
0.524930
0.518080
0.512220
0.507330
0.502440
0.499510
0.495600
0.492670
0.488760
0.484850
0.480940
0.476050
0.471160
0.467250
0.461390
0.456500
0.449660
0.443790
0.436950
0.430110
0.423260
0.416420
0.410560
0.403710
0.396870
0.391980
0.387100
0.382210
0.377320
0.372430
0.367550
0.362660
0.357770
0.353860
0.349950
0.345060
0.341150
0.339200
0.337240
0.325510
0.308900
0.300100
0.293260
0.288370
0.284460
0.280550
0.277610
0.274680
0.270770
0.267840
0.265880
0.264910
0.262950
0.259040
0.256110
0.252200
0.250240
0.251220
0.256110
0.267840
0.287390
0.315740
0.345060
0.377320
0.416420
0.459430
0.500490
0.538610
0.572830
0.600200
0.623660
0.641250
0.653960
0.663730
0.670580
0.673510
0.675460
0.676440
0.675460
0.673510
0.669600
0.663730
0.654940
0.643210
0.629520
0.612900
0.594330
0.576740
0.560120
0.542520
0.524930
0.509290
0.495600
0.484850
0.477030
0.472140
0.469210
0.468230
0.468230
0.469210
0.470190
0.471160
0.471160
0.471160
0.471160
0.470190
0.468230
0.466280
0.464320
0.461390
0.457480
0.454550
0.451610
0.449660
0.446730
0.442820
0.438910
0.435970
0.433040
0.430110
0.426200
0.423260
0.420330
0.417400
0.414470
0.412510
0.411530
0.409580
0.407620
0.405670
0.403710
0.399800
0.396870
0.393940
0.391010
0.387100
0.384160
0.381230
0.379280
0.376340
0.373410
0.369500
0.366570
0.364610
0.364610
0.368520
0.384160
0.404690
0.423260
0.446730
0.485830
0.527860
0.569890
0.612900
0.650050
0.692080
0.723360
0.748780
0.767350
0.782010
0.793740
0.801560
0.805470
0.809380
0.811340
0.813290
0.812320
0.810360
0.806450
0.800590
0.790810
0.778100
0.767350
0.752690
0.731180
0.708700
0.685240
0.661780
0.639300
0.618770
0.600200
0.583580
0.569890
0.558160
0.549360
0.541540
0.535680
0.531770
0.526880
0.522970
0.518080
0.514170
0.508310
0.502440
0.496580
0.489740
0.482890
0.475070
0.468230
0.462370
0.455520
0.447700
0.439880
0.433040
0.425220
0.418380
0.411530
0.404690
0.397850
0.391010
0.385140
0.380250
0.376340
0.371460
0.366570
0.361680
0.357770
0.352880
0.348000
0.344090
0.339200
0.335290
0.331380
0.328450
0.326490
0.323560
0.320630
0.316720
0.312810
0.308900
0.306940
0.307920
0.313780
0.326490
0.347020
0.376340
0.406650
0.439880
0.479960
0.523950
0.567940
0.608990
0.646140
0.678400
0.705770
0.728250
0.746820
0.761490
0.772240
0.778100
0.784950
0.790810
0.794720
0.797650
0.797650
0.796680
0.792770
0.785920
0.776150
0.763440
0.746820
0.730210
0.711630
0.691100
0.667640
0.644180
0.621700
0.600200
0.580650
0.563050
0.548390
0.536660
0.526880
0.519060
0.514170
0.508310
0.504400
0.499510
0.494620
0.489740
0.484850
0.478980
0.472140
0.465300
0.458460
0.450640
0.444770
0.438910
0.432060
0.424240
0.416420
0.408600
0.401760
0.393940
0.387100
0.376340
0.364610
0.356790
0.350930
0.346040
0.341150
0.336270
0.332360
0.327470
0.323560
0.318670
0.314760
0.310850
0.306940
0.303030
0.300100
0.298140
0.296190
0.294230
0.291300
0.288370
0.284460
0.281520
0.278590
0.278590
0.282500
0.292280
0.308900
0.328450
0.351910
0.384160
0.420330
0.460410
0.500490
0.538610
0.572830
0.603130
0.629520
0.651030
0.668620
0.683280
0.692080
0.697950
0.703810
0.707720
0.710650
0.711630
0.710650
0.708700
0.703810
0.695990
0.686220
0.673510
0.659820
0.645160
0.627570
0.608020
0.587490
0.565980
0.546430
0.526880
0.510260
0.496580
0.483870
0.474100
0.466280
0.461390
0.456500
0.452590
0.449660
0.445750
0.441840
0.437930
0.434020
0.429130
0.423260
0.417400
0.411530
0.406650
0.401760
0.395890
0.389050
0.382210
0.375370
0.368520
0.362660
0.355820
0.349950
0.344090
0.338220
0.334310
0.331380
0.327470
0.323560
0.318670
0.314760
0.310850
0.305960
0.302050
0.298140
0.295210
0.291300
0.287390
0.285430
0.283480
0.280550
0.277610
0.275660
0.272730
0.269790
0.266860
0.263930
0.261000
0.261000
0.263930
0.270770
0.281520
0.300100
0.325510
0.357770
0.395890
0.435970
0.477030
0.516130
0.551320
0.582600
0.608990
0.631480
0.647120
0.657870
0.667640
0.675460
0.681330
0.686220
0.688170
0.688170
0.687190
0.683280
0.677420
0.669600
0.659820
0.648090
0.633430
0.615840
0.596290
0.574780
0.553270
0.532750
0.512220
0.494620
0.478010
0.464320
0.453570
0.444770
0.438910
0.434020
0.429130
0.424240
0.420330
0.416420
0.412510
0.407620
0.402740
0.396870
0.391980
0.387100
0.382210
0.376340
0.370480
0.364610
0.357770
0.350930
0.344090
0.338220
0.331380
0.325510
0.319650
0.313780
0.308900
0.305960
0.301080
0.297170
0.292280
0.288370
0.284460
0.280550
0.276640
0.272730
0.269790
0.265880
0.263930
0.261970
0.260020
0.257090
0.255130
0.252200
0.250240
0.248290
0.245360
0.242420
0.240470
0.237540
0.234600
0.233630
0.235580
0.240470
0.250240
0.267840
0.291300
0.322580
0.359730
0.400780
0.441840
0.480940
0.517110
0.545450
0.567940
0.588470
0.606060
0.620720
0.631480
0.638320
0.644180
0.647120
0.648090
0.647120
0.645160
0.640270
0.634410
0.626590
0.615840
0.602150
0.586510
0.568910
0.550340
0.530790
0.511240
0.492670
0.476050
0.462370
0.451610
0.443790
0.436950
0.432060
0.429130
0.427170
0.426200
0.425220
0.425220
0.425220
0.424240
0.423260
0.421310
0.419350
0.416420
0.413490
0.416420
0.422290
0.423260
0.422290
0.419350
0.416420
0.412510
0.408600
0.404690
0.401760
0.398830
0.394920
0.391980
0.388070
0.384160
0.381230
0.377320
0.374390
0.370480
0.367550
0.364610
0.360700
0.358750
0.356790
0.353860
0.350930
0.348000
0.344090
0.341150
0.338220
0.335290
0.332360
0.329420
0.326490
0.323560
0.322580
0.321600
0.322580
0.328450
0.341150
0.360700
0.387100
0.421310
0.460410
0.502440
0.544480
0.580650
0.610950
0.641250
0.669600
0.694040
0.714570
0.730210
0.743890
0.753670
0.760510
0.765400
0.769310
0.770280
0.768330
0.765400
0.761490
0.754640
0.745850
0.735090
0.721410
0.703810
0.685240
0.663730
0.642230
0.619750
0.600200
0.582600
0.565000
0.548390
0.533720
0.521020
0.510260
0.501470
0.494620
0.489740
0.484850
0.480940
0.476050
0.473120
0.469210
0.465300
0.460410
0.455520
0.449660
0.443790
0.436950
0.430110
0.424240
0.417400
0.410560
0.404690
0.399800
0.394920
0.389050
0.383190
0.377320
0.371460
0.365590
0.360700
0.355820
0.350930
0.347020
0.343110
0.340180
0.337240
0.334310
0.331380
0.328450
0.324540
0.320630
0.317690
0.314760
0.311830
0.308900
0.305960
0.304010
0.302050
0.300100
0.297170
0.295210
0.296190
0.302050
0.313780
0.332360
0.358750
0.391980
0.432060
0.475070
0.513200
0.548390
0.585530
0.620720
0.652000
0.679370
0.701860
0.720430
0.736070
0.747800
0.756600
0.763440
0.766370
0.767350
0.767350
0.766370
0.764420
0.759530
0.752690
0.742910
0.730210
0.714570
0.695990
0.675460
0.652980
0.632450
0.612900
0.592380
0.571850
0.552300
0.534700
0.520040
0.508310
0.497560
0.489740
0.483870
0.478010
0.474100
0.470190
0.466280
0.462370
0.458460
0.453570
0.447700
0.441840
0.435970
0.430110
0.423260
0.416420
0.409580
0.404690
0.398830
0.392960
0.387100
0.380250
0.373410
0.367550
0.361680
0.355820
0.350930
0.346040
0.341150
0.337240
0.334310
0.330400
0.327470
0.323560
0.319650
0.316720
0.312810
0.308900
0.305960
0.302050
0.299120
0.295210
0.293260
0.292280
0.291300
0.288370
0.286410
0.283480
0.281520
0.281520
0.284460
0.292280
0.306940
0.329420
0.354840
0.384160
0.421310
0.463340
0.507330
0.550340
0.590420
0.625610
0.655910
0.681330
0.701860
0.718480
0.731180
0.739000
0.742910
0.746820
0.749760
0.750730
0.749760
0.746820
0.741940
0.734120
0.723360
0.710650
0.695010
0.678400
0.661780
0.642230
0.620720
0.598240
0.576740
0.556210
0.537630
0.521990
0.508310
0.489740
0.471160
0.459430
0.452590
0.447700
0.444770
0.440860
0.437930
0.435000
0.432060
0.428150
0.423260
0.418380
0.412510
0.405670
0.399800
0.394920
0.388070
0.381230
0.373410
0.366570
0.358750
0.351910
0.344090
0.337240
0.330400
0.323560
0.318670
0.314760
0.310850
0.307920
0.308900
0.314760
0.326490
0.345060
0.370480
0.401760
0.436950
0.474100
0.511240
0.541540
0.566960
0.592380
0.614860
0.633430
0.647120
0.657870
0.664710
0.668620
0.669600
0.668620
0.664710
0.658850
0.652000
0.642230
0.628540
0.612900
0.595310
0.574780
0.552300
0.528840
0.505380
0.482890
0.463340
0.444770
0.431090
0.420330
0.409580
0.401760
0.394920
0.390030
0.387100
0.383190
0.381230
0.378300
0.374390
0.371460
0.368520
0.365590
0.361680
0.356790
0.351910
0.346040
0.340180
0.334310
0.327470
0.321600
0.315740
0.308900
0.303030
0.299120
0.295210
0.290320
0.285430
0.280550
0.275660
0.270770
0.265880
0.261000
0.256110
0.252200
0.248290
0.245360
0.243400
0.240470
0.237540
0.234600
0.231670
0.228740
0.225810
0.222870
0.219940
0.217990
0.215050
0.214080
0.213100
0.213100
0.212120
0.211140
0.209190
0.208210
0.207230
0.205280
0.204300
0.203320
0.202350
0.201370
0.201370
0.202350
0.202350
0.201370
0.201370
0.200390
0.199410
0.198440
0.197460
0.196480
0.195500
0.194530
0.193550
0.194530
0.194530
0.193550
0.192570
0.191590
0.191590
0.195500
0.205280
0.223850
0.252200
0.289350
0.336270
0.380250
0.425220
0.475070
0.525900
0.574780
0.616810
0.653960
0.684260
0.709680
0.728250
0.742910
0.754640
0.762460
0.765400
0.766370
0.766370
0.764420
0.760510
0.753670
0.744870
0.732160
0.717500
0.699900
0.681330
0.660800
0.642230
0.625610
0.608020
0.591400
0.576740
0.564030
0.554250
0.547410
0.542520
0.538610
0.536660
0.533720
0.531770
0.529810
0.526880
0.522970
0.519060
0.514170
0.509290
0.503420
0.497560
0.491690
0.484850
0.478010
0.471160
0.464320
0.458460
0.451610
0.444770
0.436950
0.430110
0.422290
0.416420
0.412510
0.411530
0.416420
0.426200
0.442820
0.461390
0.482890
0.511240
0.543500
0.576740
0.609970
0.639300
0.665690
0.687190
0.704790
0.717500
0.725320
0.729230
0.729230
0.728250
0.725320
0.719450
0.710650
0.698920
0.684260
0.666670
0.647120
0.625610
0.602150
0.581620
0.561090
0.540570
0.520040
0.501470
0.484850
0.471160
0.459430
0.450640
0.443790
0.437930
0.434020
0.431090
0.428150
0.426200
0.423260
0.420330
0.424240
0.432060
0.434020
0.432060
0.429130
0.425220
0.421310
0.416420
0.412510
0.408600
0.403710
0.398830
0.393940
0.389050
0.383190
0.378300
0.373410
0.369500
0.364610
0.360700
0.356790
0.353860
0.350930
0.348000
0.344090
0.341150
0.337240
0.334310
0.331380
0.328450
0.326490
0.323560
0.321600
0.319650
0.319650
0.317690
0.316720
0.314760
0.313780
0.312810
0.310850
0.309870
0.308900
0.307920
0.306940
0.305960
0.305960
0.305960
0.305960
0.304990
0.304990
0.304010
0.303030
0.302050
0.301080
0.301080
0.300100
0.300100
0.300100
0.301080
0.301080
0.301080
0.301080
0.300100
0.300100
0.300100
0.300100
0.299120
0.299120
0.298140
0.298140
0.298140
0.299120
0.299120
0.298140
0.298140
0.297170
0.297170
0.300100
0.306940
0.320630
0.341150
0.369500
0.400780
0.435000
0.477030
0.523950
0.570870
0.616810
0.657870
0.695010
0.727270
0.754640
0.777130
0.794720
0.810360
0.820140
0.826000
0.831870
0.836750
0.839690
0.840660
0.838710
0.835780
0.828930
0.820140
0.808410
0.793740
0.779080
0.762460
0.742910
0.722390
0.700880
0.680350
0.659820
0.641250
0.623660
0.608990
0.596290
0.585530
0.575760
0.568910
0.563050
0.557180
0.552300
0.547410
0.541540
0.536660
0.531770
0.525900
0.520040
0.513200
0.506350
0.500490
0.495600
0.488760
0.481920
0.475070
0.467250
0.460410
0.453570
0.445750
0.438910
0.432060
0.426200
0.420330
0.415440
0.411530
0.406650
0.401760
0.396870
0.392960
0.388070
0.383190
0.378300
0.373410
0.369500
0.364610
0.361680
0.358750
0.355820
0.351910
0.348000
0.345060
0.344090
0.345060
0.350930
0.361680
0.379280
0.402740
0.432060
0.461390
0.490710
0.524930
0.561090
0.595310
0.625610
0.652980
0.676440
0.695010
0.709680
0.720430
0.728250
0.733140
0.734120
0.735090
0.734120
0.731180
0.727270
0.720430
0.711630
0.700880
0.687190
0.670580
0.652980
0.633430
0.614860
0.597260
0.578690
0.560120
0.542520
0.525900
0.512220
0.500490
0.489740
0.481920
0.475070
0.470190
0.466280
0.463340
0.460410
0.456500
0.453570
0.449660
0.444770
0.439880
0.435000
0.430110
0.424240
0.418380
0.413490
0.408600
0.402740
0.396870
0.391010
0.385140
0.379280
0.373410
0.367550
0.361680
0.356790
0.350930
0.346040
0.343110
0.340180
0.336270
0.332360
0.327470
0.323560
0.319650
0.315740
0.312810
0.308900
0.305960
0.304010
0.302050
0.301080
0.299120
0.297170
0.295210
0.293260
0.292280
0.290320
0.289350
0.288370
0.286410
0.276640
0.261970
0.255130
0.252200
0.249270
0.248290
0.246330
0.244380
0.243400
0.241450
0.239490
0.238510
0.239490
0.243400
0.250240
0.261000
0.279570
0.304010
0.335290
0.370480
0.408600
0.447700
0.484850
0.518080
0.547410
0.572830
0.592380
0.606060
0.615840
0.623660
0.629520
0.633430
0.635390
0.636360
0.635390
0.632450
0.627570
0.620720
0.610950
0.601170
0.589440
0.575760
0.560120
0.542520
0.524930
0.507330
0.489740
0.474100
0.460410
0.448680
0.438910
0.431090
0.425220
0.421310
0.418380
0.415440
0.413490
0.411530
0.409580
0.407620
0.405670
0.402740
0.399800
0.396870
0.393940
0.391980
0.389050
0.386120
0.384160
0.381230
0.379280
0.376340
0.374390
0.372430
0.370480
0.369500
0.367550
0.366570
0.364610
0.363640
0.361680
0.359730
0.357770
0.356790
0.354840
0.352880
0.351910
0.350930
0.348970
0.348000
0.348000
0.347020
0.345060
0.344090
0.342130
0.341150
0.340180
0.338220
0.337240
0.335290
0.334310
0.332360
0.331380
0.330400
0.328450
0.327470
0.325510
0.323560
0.321600
0.319650
0.316720
0.314760
0.313780
0.314760
0.318670
0.324540
0.337240
0.354840
0.380250
0.410560
0.444770
0.480940
0.518080
0.553270
0.585530
0.613880
0.638320
0.655910
0.668620
0.680350
0.691100
0.699900
0.705770
0.709680
0.712610
0.714570
0.713590
0.710650
0.706740
0.699900
0.692080
0.682310
0.670580
0.655910
0.640270
0.622680
0.605080
0.586510
0.567940
0.551320
0.535680
0.521020
0.510260
0.500490
0.491690
0.483870
0.477030
0.471160
0.466280
0.461390
0.456500
0.452590
0.447700
0.442820
0.438910
0.435000
0.430110
0.425220
0.419350
0.413490
0.407620
0.400780
0.394920
0.388070
0.383190
0.379280
0.377320
0.378300
0.384160
0.393940
0.408600
0.429130
0.452590
0.478010
0.504400
0.529810
0.553270
0.572830
0.589440
0.600200
0.608020
0.613880
0.616810
0.618770
0.617790
0.614860
0.609970
0.603130
0.593350
0.582600
0.568910
0.555230
0.540570
0.523950
0.505380
0.487780
0.469210
0.452590
0.437930
0.424240
0.413490
0.405670
0.398830
0.393940
0.390030
0.388070
0.386120
0.385140
0.384160
0.382210
0.380250
0.378300
0.375370
0.371460
0.368520
0.364610
0.360700
0.356790
0.352880
0.348000
0.343110
0.338220
0.333330
0.328450
0.322580
0.317690
0.312810
0.308900
0.304990
0.304010
0.304990
0.308900
0.317690
0.332360
0.352880
0.379280
0.410560
0.442820
0.476050
0.508310
0.536660
0.559140
0.576740
0.592380
0.606060
0.616810
0.632450
0.650050
0.658850
0.662760
0.663730
0.661780
0.656890
0.651030
0.643210
0.633430
0.620720
0.606060
0.589440
0.570870
0.551320
0.530790
0.511240
0.492670
0.476050
0.461390
0.449660
0.440860
0.433040
0.426200
0.420330
0.416420
0.412510
0.409580
0.406650
0.403710
0.400780
0.397850
0.393940
0.391010
0.388070
0.384160
0.379280
0.374390
0.370480
0.365590
0.359730
0.354840
0.348970
0.343110
0.337240
0.333330
0.329420
0.325510
0.320630
0.316720
0.311830
0.307920
0.303030
0.299120
0.295210
0.292280
0.292280
0.297170
0.304990
0.317690
0.337240
0.364610
0.396870
0.433040
0.472140
0.509290
0.544480
0.575760
0.603130
0.624630
0.640270
0.651030
0.660800
0.668620
0.673510
0.676440
0.677420
0.676440
0.673510
0.669600
0.662760
0.653960
0.642230
0.630500
0.616810
0.600200
0.581620
0.561090
0.540570
0.521020
0.501470
0.483870
0.467250
0.453570
0.441840
0.433040
0.426200
0.420330
0.415440
0.410560
0.406650
0.402740
0.398830
0.394920
0.391010
0.386120
0.381230
0.376340
0.371460
0.367550
0.362660
0.357770
0.350930
0.345060
0.339200
0.332360
0.326490
0.320630
0.314760
0.309870
0.305960
0.302050
0.298140
0.294230
0.290320
0.285430
0.281520
0.277610
0.273700
0.269790
0.266860
0.262950
0.260020
0.259040
0.257090
0.255130
0.253180
0.251220
0.248290
0.246330
0.244380
0.241450
0.240470
0.238510
0.236560
0.235580
0.235580
0.234600
0.233630
0.231670
0.230690
0.229720
0.228740
0.227760
0.226780
0.226780
0.225810
0.226780
0.227760
0.227760
0.227760
0.227760
0.226780
0.226780
0.225810
0.224830
0.223850
0.222870
0.221900
0.220920
0.220920
0.222870
0.228740
0.238510
0.257090
0.282500
0.317690
0.358750
0.403710
0.450640
0.495600
0.537630
0.570870
0.597260
0.621700
0.642230
0.658850
0.671550
0.681330
0.687190
0.691100
0.693060
0.692080
0.690130
0.685240
0.678400
0.670580
0.659820
0.646140
0.631480
0.613880
0.595310
0.576740
0.557180
0.539590
0.521990
0.507330
0.495600
0.486800
0.478980
0.472140
0.467250
0.464320
0.461390
0.459430
0.458460
0.456500
0.454550
0.452590
0.450640
0.447700
0.445750
0.442820
0.439880
0.436950
0.434020
0.430110
0.427170
0.424240
0.421310
0.418380
0.415440
0.412510
0.410560
0.407620
0.404690
0.401760
0.398830
0.395890
0.392960
0.389050
0.386120
0.383190
0.380250
0.377320
0.374390
0.372430
0.370480
0.368520
0.365590
0.363640
0.360700
0.358750
0.355820
0.353860
0.350930
0.357770
0.370480
0.376340
0.378300
0.378300
0.377320
0.376340
0.374390
0.372430
0.370480
0.368520
0.366570
0.364610
0.362660
0.361680
0.360700
0.358750
0.356790
0.354840
0.352880
0.349950
0.348000
0.347020
0.348000
0.353860
0.364610
0.378300
0.396870
0.424240
0.457480
0.496580
0.537630
0.579670
0.618770
0.654940
0.687190
0.714570
0.737050
0.755620
0.768330
0.777130
0.784950
0.791790
0.797650
0.801560
0.803520
0.803520
0.802540
0.798630
0.792770
0.784950
0.774190
0.762460
0.747800
0.731180
0.712610
0.693060
0.672530
0.652000
0.633430
0.615840
0.599220
0.584560
0.572830
0.563050
0.554250
0.547410
0.540570
0.534700
0.528840
0.523950
0.519060
0.514170
0.508310
0.503420
0.497560
0.492670
0.486800
0.480940
0.475070
0.469210
0.463340
0.459430
0.457480
0.458460
0.464320
0.474100
0.489740
0.509290
0.528840
0.547410
0.568910
0.590420
0.610950
0.628540
0.642230
0.652980
0.659820
0.662760
0.661780
0.657870
0.651030
0.643210
0.631480
0.616810
0.600200
0.581620
0.561090
0.540570
0.520040
0.500490
0.482890
0.467250
0.454550
0.444770
0.437930
0.433040
0.429130
0.426200
0.425220
0.424240
0.424240
0.423260
0.422290
0.421310
0.420330
0.418380
0.416420
0.414470
0.410560
0.407620
0.403710
0.399800
0.395890
0.391980
0.387100
0.383190
0.378300
0.374390
0.371460
0.367550
0.363640
0.358750
0.354840
0.349950
0.346040
0.341150
0.337240
0.334310
0.333330
0.335290
0.341150
0.350930
0.367550
0.391980
0.423260
0.458460
0.497560
0.537630
0.575760
0.609970
0.640270
0.665690
0.683280
0.696970
0.707720
0.717500
0.724340
0.729230
0.731180
0.732160
0.730210
0.727270
0.721410
0.712610
0.701860
0.690130
0.677420
0.660800
0.642230
0.622680
0.603130
0.583580
0.564030
0.547410
0.531770
0.518080
0.507330
0.499510
0.492670
0.487780
0.482890
0.478980
0.476050
0.473120
0.469210
0.466280
0.462370
0.457480
0.453570
0.448680
0.443790
0.439880
0.435000
0.429130
0.422290
0.416420
0.410560
0.404690
0.398830
0.392960
0.388070
0.382210
0.378300
0.375370
0.370480
0.366570
0.362660
0.357770
0.353860
0.348970
0.345060
0.342130
0.338220
0.336270
0.333330
0.332360
0.331380
0.330400
0.329420
0.327470
0.325510
0.323560
0.321600
0.319650
0.317690
0.314760
0.312810
0.311830
0.310850
0.309870
0.307920
0.308900
0.312810
0.321600
0.337240
0.360700
0.392960
0.430110
0.473120
0.517110
0.555230
0.588470
0.622680
0.653960
0.681330
0.690130
0.687190
0.691100
0.696970
0.701860
0.706740
0.708700
0.708700
0.706740
0.704790
0.699900
0.694040
0.685240
0.674490
0.660800
0.644180
0.625610
0.606060
0.585530
0.565000
0.547410
0.530790
0.514170
0.499510
0.485830
0.474100
0.463340
0.455520
0.447700
0.440860
0.435000
0.429130
0.424240
0.420330
0.415440
0.409580
0.403710
0.397850
0.391980
0.386120
0.379280
0.373410
0.367550
0.362660
0.357770
0.354840
0.353860
0.354840
0.358750
0.366570
0.378300
0.392960
0.410560
0.430110
0.449660
0.467250
0.482890
0.493650
0.500490
0.505380
0.506350
0.502440
0.494620
0.482890
0.468230
0.450640
0.431090
0.410560
0.391010
0.371460
0.355820
0.343110
0.331380
0.320630
0.311830
0.306940
0.303030
0.302050
0.303030
0.304010
0.305960
0.306940
0.308900
0.309870
0.309870
0.309870
0.307920
0.305960
0.303030
0.300100
0.296190
0.292280
0.288370
0.283480
0.280550
0.278590
0.275660
0.271750
0.267840
0.262950
0.260020
0.257090
0.257090
0.261000
0.269790
0.286410
0.309870
0.334310
0.361680
0.395890
0.432060
0.468230
0.501470
0.530790
0.556210
0.575760
0.590420
0.600200
0.607040
0.609970
0.609970
0.608990
0.606060
0.601170
0.593350
0.583580
0.571850
0.557180
0.540570
0.522970
0.503420
0.484850
0.468230
0.454550
0.439880
0.428150
0.418380
0.410560
0.405670
0.402740
0.401760
0.401760
0.401760
0.402740
0.403710
0.403710
0.403710
0.402740
0.400780
0.398830
0.395890
0.392960
0.390030
0.386120
0.382210
0.378300
0.374390
0.370480
0.367550
0.363640
0.360700
0.356790
0.352880
0.348970
0.345060
0.342130
0.338220
0.335290
0.331380
0.329420
0.327470
0.324540
0.321600
0.318670
0.315740
0.312810
0.309870
0.307920
0.305960
0.303030
0.301080
0.299120
0.298140
0.297170
0.296190
0.295210
0.293260
0.291300
0.290320
0.288370
0.286410
0.284460
0.283480
0.281520
0.281520
0.280550
0.280550
0.279570
0.278590
0.277610
0.276640
0.275660
0.274680
0.273700
0.272730
0.271750
0.271750
0.271750
0.271750
0.271750
0.271750
0.270770
0.270770
0.269790
0.268820
0.267840
0.266860
0.265880
0.264910
0.263930
0.263930
0.263930
0.267840
0.275660
0.291300
0.315740
0.349950
0.392960
0.441840
0.494620
0.547410
0.598240
0.639300
0.672530
0.704790
0.734120
0.759530
0.780060
0.796680
0.810360
0.821110
0.827960
0.832840
0.835780
0.834800
0.830890
0.826000
0.819160
0.809380
0.797650
0.783970
0.766370
0.746820
0.725320
0.702830
0.680350
0.643210
0.602150
0.574780
0.554250
0.537630
0.524930
0.514170
0.505380
0.497560
0.491690
0.485830
0.479960
0.474100
0.469210
0.464320
0.459430
0.453570
0.446730
0.440860
0.434020
0.427170
0.420330
0.413490
0.405670
0.398830
0.391980
0.386120
0.381230
0.375370
0.369500
0.363640
0.357770
0.351910
0.347020
0.341150
0.336270
0.330400
0.325510
0.322580
0.318670
0.315740
0.311830
0.307920
0.304010
0.301080
0.298140
0.294230
0.291300
0.289350
0.286410
0.284460
0.282500
0.281520
0.279570
0.277610
0.275660
0.273700
0.271750
0.269790
0.267840
0.265880
0.263930
0.261970
0.261000
0.261000
0.259040
0.257090
0.256110
0.257090
0.260020
0.267840
0.281520
0.302050
0.328450
0.359730
0.390030
0.419350
0.451610
0.484850
0.516130
0.544480
0.567940
0.587490
0.603130
0.615840
0.625610
0.633430
0.638320
0.640270
0.640270
0.640270
0.638320
0.635390
0.630500
0.623660
0.613880
0.603130
0.589440
0.573800
0.557180
0.541540
0.525900
0.510260
0.493650
0.478010
0.464320
0.452590
0.441840
0.433040
0.426200
0.421310
0.416420
0.412510
0.409580
0.406650
0.403710
0.400780
0.396870
0.392960
0.389050
0.384160
0.379280
0.374390
0.368520
0.362660
0.357770
0.353860
0.348970
0.343110
0.338220
0.333330
0.328450
0.323560
0.318670
0.313780
0.309870
0.304990
0.301080
0.298140
0.295210
0.292280
0.288370
0.285430
0.281520
0.278590
0.275660
0.272730
0.270770
0.268820
0.266860
0.264910
0.264910
0.262950
0.261970
0.260020
0.259040
0.257090
0.255130
0.254150
0.252200
0.251220
0.249270
0.248290
0.247310
0.246330
0.245360
0.243400
0.242420
0.241450
0.244380
0.250240
0.261970
0.279570
0.303030
0.333330
0.362660
0.391980
0.426200
0.460410
0.493650
0.523950
0.550340
0.571850
0.589440
0.604110
0.614860
0.622680
0.628540
0.631480
0.632450
0.632450
0.631480
0.628540
0.624630
0.618770
0.609970
0.600200
0.587490
0.572830
0.557180
0.541540
0.526880
0.510260
0.494620
0.478980
0.465300
0.452590
0.442820
0.434020
0.427170
0.422290
0.418380
0.414470
0.411530
0.409580
0.406650
0.403710
0.399800
0.395890
0.391980
0.387100
0.382210
0.376340
0.371460
0.365590
0.360700
0.355820
0.350930
0.345060
0.340180
0.334310
0.328450
0.323560
0.318670
0.313780
0.308900
0.304010
0.299120
0.295210
0.292280
0.288370
0.285430
0.281520
0.277610
0.273700
0.270770
0.267840
0.264910
0.261970
0.259040
0.258060
0.257090
0.255130
0.254150
0.252200
0.250240
0.251220
0.253180
0.253180
0.251220
0.250240
0.248290
0.246330
0.245360
0.244380
0.243400
0.241450
0.239490
0.237540
0.238510
0.243400
0.254150
0.272730
0.299120
0.332360
0.367550
0.402740
0.444770
0.488760
0.531770
0.570870
0.605080
0.633430
0.655910
0.674490
0.688170
0.697950
0.702830
0.705770
0.707720
0.707720
0.706740
0.704790
0.699900
0.693060
0.683280
0.670580
0.655910
0.638320
0.617790
0.599220
0.580650
0.561090
0.541540
0.523950
0.507330
0.493650
0.482890
0.474100
0.467250
0.461390
0.457480
0.453570
0.450640
0.447700
0.444770
0.440860
0.436950
0.432060
0.426200
0.421310
0.415440
0.408600
0.402740
0.396870
0.391980
0.387100
0.382210
0.376340
0.371460
0.366570
0.361680
0.359730
0.360700
0.366570
0.377320
0.394920
0.413490
0.435000
0.462370
0.492670
0.523950
0.554250
0.581620
0.605080
0.623660
0.638320
0.649070
0.654940
0.657870
0.657870
0.653960
0.649070
0.641250
0.630500
0.616810
0.600200
0.582600
0.563050
0.542520
0.521990
0.502440
0.486800
0.473120
0.461390
0.450640
0.442820
0.437930
0.434020
0.433040
0.432060
0.432060
0.432060
0.432060
0.431090
0.430110
0.429130
0.427170
0.424240
0.421310
0.417400
0.412510
0.408600
0.403710
0.398830
0.393940
0.389050
0.385140
0.381230
0.376340
0.371460
0.366570
0.361680
0.356790
0.351910
0.347020
0.343110
0.338220
0.333330
0.329420
0.326490
0.323560
0.320630
0.317690
0.313780
0.310850
0.306940
0.304010
0.301080
0.299120
0.296190
0.294230
0.292280
0.291300
0.290320
0.288370
0.287390
0.285430
0.284460
0.283480
0.282500
0.281520
0.280550
0.279570
0.278590
0.278590
0.278590
0.277610
0.276640
0.275660
0.274680
0.273700
0.272730
0.271750
0.270770
0.269790
0.269790
0.269790
0.270770
0.270770
0.270770
0.270770
0.269790
0.268820
0.268820
0.267840
0.266860
0.265880
0.264910
0.264910
0.264910
0.266860
0.272730
0.282500
0.300100
0.327470
0.362660
0.406650
0.456500
0.510260
0.563050
0.613880
0.654940
0.688170
0.720430
0.749760
0.775170
0.796680
0.813290
0.826980
0.837730
0.844570
0.850440
0.853370
0.853370
0.851420
0.846530
0.839690
0.831870
0.820140
0.806450
0.789830
0.770280
0.747800
0.725320
0.701860
0.678400
0.657870
0.639300
0.621700
0.605080
0.590420
0.578690
0.567940
0.558160
0.550340
0.543500
0.537630
0.531770
0.524930
0.519060
0.514170
0.507330
0.500490
0.492670
0.485830
0.478010
0.470190
0.462370
0.454550
0.446730
0.438910
0.426200
0.412510
0.402740
0.394920
0.388070
0.381230
0.375370
0.370480
0.364610
0.359730
0.354840
0.350930
0.347020
0.344090
0.340180
0.336270
0.332360
0.329420
0.326490
0.322580
0.319650
0.317690
0.314760
0.311830
0.309870
0.308900
0.307920
0.306940
0.305960
0.304010
0.303030
0.302050
0.300100
0.299120
0.298140
0.296190
0.295210
0.294230
0.294230
0.293260
0.292280
0.291300
0.290320
0.289350
0.288370
0.288370
0.290320
0.296190
0.307920
0.324540
0.344090
0.367550
0.396870
0.431090
0.468230
0.504400
0.538610
0.568910
0.596290
0.618770
0.636360
0.651030
0.660800
0.666670
0.672530
0.677420
0.680350
0.681330
0.682310
0.680350
0.677420
0.672530
0.665690
0.656890
0.645160
0.633430
0.619750
0.605080
0.588470
0.570870
0.554250
0.538610
0.522970
0.510260
0.498530
0.488760
0.479960
0.474100
0.469210
0.464320
0.460410
0.456500
0.452590
0.448680
0.443790
0.439880
0.435000
0.429130
0.424240
0.418380
0.413490
0.409580
0.403710
0.397850
0.391980
0.386120
0.380250
0.373410
0.367550
0.361680
0.355820
0.348970
0.344090
0.339200
0.334310
0.328450
0.322580
0.317690
0.311830
0.306940
0.302050
0.297170
0.293260
0.289350
0.285430
0.283480
0.281520
0.278590
0.275660
0.272730
0.269790
0.266860
0.262950
0.260020
0.257090
0.254150
0.251220
0.249270
0.248290
0.246330
0.244380
0.241450
0.239490
0.238510
0.239490
0.244380
0.254150
0.269790
0.290320
0.317690
0.345060
0.372430
0.404690
0.436950
0.468230
0.495600
0.519060
0.537630
0.552300
0.564030
0.571850
0.577710
0.580650
0.581620
0.581620
0.581620
0.579670
0.575760
0.571850
0.565000
0.557180
0.547410
0.534700
0.521020
0.506350
0.491690
0.478010
0.463340
0.447700
0.434020
0.420330
0.409580
0.399800
0.392960
0.387100
0.382210
0.379280
0.377320
0.375370
0.373410
0.370480
0.367550
0.363640
0.360700
0.355820
0.351910
0.347020
0.342130
0.337240
0.331380
0.327470
0.323560
0.319650
0.314760
0.309870
0.304990
0.301080
0.296190
0.291300
0.287390
0.283480
0.279570
0.276640
0.274680
0.271750
0.268820
0.265880
0.262950
0.260020
0.257090
0.255130
0.252200
0.250240
0.248290
0.247310
0.246330
0.246330
0.246330
0.245360
0.245360
0.244380
0.244380
0.243400
0.243400
0.244380
0.244380
0.244380
0.245360
0.246330
0.247310
0.247310
0.248290
0.251220
0.257090
0.267840
0.284460
0.307920
0.336270
0.369500
0.399800
0.429130
0.461390
0.492670
0.521990
0.546430
0.565980
0.595310
0.628540
0.648090
0.659820
0.666670
0.670580
0.670580
0.669600
0.667640
0.663730
0.658850
0.652000
0.643210
0.633430
0.620720
0.606060
0.591400
0.574780
0.561090
0.547410
0.533720
0.521990
0.510260
0.501470
0.493650
0.487780
0.482890
0.478980
0.475070
0.472140
0.469210
0.466280
0.464320
0.460410
0.457480
0.453570
0.449660
0.445750
0.440860
0.435970
0.431090
0.425220
0.419350
0.415440
0.410560
0.406650
0.402740
0.399800
0.400780
0.404690
0.412510
0.426200
0.443790
0.465300
0.489740
0.515150
0.536660
0.554250
0.571850
0.587490
0.600200
0.609970
0.616810
0.621700
0.623660
0.622680
0.621700
0.617790
0.612900
0.606060
0.598240
0.587490
0.575760
0.562070
0.547410
0.531770
0.516130
0.500490
0.485830
0.472140
0.460410
0.451610
0.443790
0.437930
0.433040
0.428150
0.425220
0.423260
0.421310
0.419350
0.418380
0.416420
0.413490
0.411530
0.409580
0.407620
0.403710
0.400780
0.396870
0.392960
0.389050
0.384160
0.380250
0.375370
0.371460
0.366570
0.363640
0.359730
0.356790
0.352880
0.348000
0.344090
0.340180
0.336270
0.333330
0.329420
0.326490
0.323560
0.321600
0.319650
0.318670
0.316720
0.313780
0.311830
0.309870
0.307920
0.305960
0.304010
0.302050
0.301080
0.299120
0.299120
0.299120
0.298140
0.298140
0.297170
0.296190
0.295210
0.294230
0.293260
0.292280
0.291300
0.290320
0.290320
0.291300
0.291300
0.290320
0.290320
0.290320
0.289350
0.289350
0.289350
0.288370
0.288370
0.288370
0.288370
0.288370
0.289350
0.289350
0.288370
0.288370
0.287390
0.285430
0.284460
0.284460
0.287390
0.294230
0.306940
0.323560
0.345060
0.375370
0.411530
0.451610
0.492670
0.532750
0.568910
0.600200
0.626590
0.647120
0.663730
0.677420
0.685240
0.691100
0.695990
0.699900
0.703810
0.705770
0.705770
0.705770
0.703810
0.699900
0.694040
0.687190
0.678400
0.668620
0.656890
0.642230
0.627570
0.610950
0.594330
0.578690
0.563050
0.548390
0.535680
0.524930
0.517110
0.510260
0.504400
0.499510
0.495600
0.491690
0.488760
0.484850
0.480940
0.477030
0.473120
0.468230
0.463340
0.458460
0.454550
0.448680
0.442820
0.436950
0.431090
0.425220
0.419350
0.413490
0.408600
0.402740
0.397850
0.393940
0.390030
0.386120
0.381230
0.377320
0.372430
0.367550
0.363640
0.358750
0.353860
0.349950
0.346040
0.342130
0.339200
0.336270
0.333330
0.330400
0.326490
0.323560
0.320630
0.320630
0.323560
0.330400
0.344090
0.362660
0.382210
0.403710
0.430110
0.462370
0.495600
0.526880
0.554250
0.576740
0.594330
0.608020
0.617790
0.624630
0.627570
0.629520
0.628540
0.626590
0.623660
0.619750
0.613880
0.606060
0.596290
0.584560
0.569890
0.554250
0.536660
0.521020
0.505380
0.489740
0.473120
0.457480
0.444770
0.433040
0.424240
0.416420
0.411530
0.407620
0.404690
0.402740
0.400780
0.399800
0.397850
0.394920
0.391980
0.388070
0.384160
0.379280
0.374390
0.369500
0.363640
0.358750
0.353860
0.349950
0.345060
0.340180
0.334310
0.328450
0.323560
0.317690
0.312810
0.307920
0.304010
0.300100
0.296190
0.294230
0.292280
0.290320
0.288370
0.287390
0.285430
0.284460
0.283480
0.283480
0.283480
0.284460
0.285430
0.287390
0.290320
0.292280
0.295210
0.298140
0.301080
0.304010
0.306940
0.309870
0.311830
0.314760
0.316720
0.319650
0.321600
0.324540
0.326490
0.328450
0.330400
0.331380
0.332360
0.333330
0.333330
0.333330
0.333330
0.333330
0.333330
0.333330
0.332360
0.331380
0.330400
0.328450
0.327470
0.328450
0.333330
0.344090
0.361680
0.386120
0.418380
0.450640
0.482890
0.520040
0.559140
0.595310
0.627570
0.655910
0.678400
0.695990
0.709680
0.720430
0.728250
0.731180
0.733140
0.734120
0.735090
0.734120
0.732160
0.728250
0.723360
0.716520
0.707720
0.695990
0.682310
0.667640
0.652000
0.636360
0.619750
0.602150
0.585530
0.569890
0.556210
0.544480
0.535680
0.527860
0.521990
0.517110
0.512220
0.509290
0.505380
0.502440
0.498530
0.495600
0.490710
0.486800
0.481920
0.476050
0.471160
0.465300
0.458460
0.453570
0.448680
0.442820
0.435970
0.430110
0.424240
0.417400
0.411530
0.405670
0.399800
0.393940
0.388070
0.384160
0.380250
0.375370
0.371460
0.366570
0.362660
0.357770
0.353860
0.350930
0.347020
0.343110
0.340180
0.338220
0.336270
0.334310
0.331380
0.329420
0.327470
0.324540
0.322580
0.319650
0.317690
0.315740
0.312810
0.310850
0.309870
0.307920
0.305960
0.304010
0.302050
0.302050
0.305960
0.313780
0.328450
0.349950
0.379280
0.413490
0.445750
0.478010
0.513200
0.549360
0.582600
0.612900
0.638320
0.659820
0.677420
0.692080
0.703810
0.713590
0.721410
0.725320
0.728250
0.730210
0.732160
0.732160
0.731180
0.728250
0.723360
0.715540
0.704790
0.692080
0.676440
0.660800
0.645160
0.627570
0.608990
0.591400
0.573800
0.558160
0.544480
0.532750
0.523950
0.516130
0.510260
0.505380
0.501470
0.498530
0.495600
0.491690
0.487780
0.482890
0.478010
0.469210
0.458460
0.448680
0.440860
0.433040
0.426200
0.420330
0.414470
0.407620
0.399800
0.392960
0.385140
0.377320
0.369500
0.363640
0.358750
0.356790
0.358750
0.364610
0.374390
0.391980
0.415440
0.444770
0.477030
0.510260
0.543500
0.573800
0.600200
0.622680
0.640270
0.652000
0.659820
0.666670
0.670580
0.672530
0.672530
0.670580
0.666670
0.660800
0.652000
0.640270
0.626590
0.609970
0.593350
0.575760
0.556210
0.535680
0.514170
0.494620
0.476050
0.459430
0.445750
0.434020
0.424240
0.417400
0.412510
0.408600
0.404690
0.401760
0.397850
0.393940
0.390030
0.385140
0.379280
0.373410
0.367550
0.361680
0.354840
0.349950
0.345060
0.340180
0.333330
0.327470
0.320630
0.313780
0.307920
0.301080
0.294230
0.287390
0.281520
0.276640
0.272730
0.266860
0.261970
0.256110
0.250240
0.245360
0.239490
0.233630
0.228740
0.224830
0.222870
0.225810
0.231670
0.243400
0.262950
0.290320
0.325510
0.366570
0.409580
0.452590
0.493650
0.529810
0.562070
0.588470
0.607040
0.620720
0.633430
0.643210
0.651030
0.656890
0.659820
0.661780
0.662760
0.659820
0.655910
0.648090
0.637340
0.624630
0.610950
0.592380
0.571850
0.549360
0.525900
0.502440
0.480940
0.460410
0.442820
0.428150
0.416420
0.407620
0.401760
0.396870
0.391980
0.388070
0.384160
0.381230
0.377320
0.372430
0.367550
0.361680
0.355820
0.349950
0.345060
0.341150
0.335290
0.329420
0.323560
0.316720
0.309870
0.304010
0.297170
0.291300
0.285430
0.279570
0.275660
0.272730
0.267840
0.263930
0.260020
0.257090
0.254150
0.252200
0.250240
0.251220
0.255130
0.264910
0.277610
0.295210
0.322580
0.357770
0.398830
0.443790
0.489740
0.534700
0.575760
0.612900
0.645160
0.671550
0.693060
0.707720
0.718480
0.728250
0.736070
0.741940
0.746820
0.748780
0.747800
0.745850
0.739980
0.731180
0.720430
0.706740
0.691100
0.672530
0.652000
0.628540
0.605080
0.582600
0.560120
0.540570
0.522970
0.508310
0.496580
0.486800
0.479960
0.474100
0.468230
0.463340
0.457480
0.451610
0.445750
0.439880
0.433040
0.427170
0.420330
0.413490
0.406650
0.400780
0.393940
0.386120
0.378300
0.369500
0.360700
0.352880
0.345060
0.340180
0.337240
0.340180
0.348970
0.361680
0.378300
0.402740
0.432060
0.465300
0.500490
0.533720
0.565000
0.591400
0.613880
0.631480
0.645160
0.652980
0.656890
0.659820
0.660800
0.659820
0.656890
0.651030
0.643210
0.632450
0.618770
0.602150
0.582600
0.561090
0.540570
0.523950
0.508310
0.489740
0.471160
0.454550
0.439880
0.428150
0.418380
0.410560
0.404690
0.399800
0.396870
0.393940
0.391010
0.388070
0.385140
0.381230
0.377320
0.372430
0.367550
0.362660
0.357770
0.351910
0.346040
0.341150
0.336270
0.331380
0.325510
0.319650
0.313780
0.308900
0.303030
0.298140
0.293260
0.288370
0.283480
0.280550
0.277610
0.273700
0.269790
0.265880
0.262950
0.260020
0.256110
0.253180
0.250240
0.247310
0.244380
0.242420
0.241450
0.241450
0.240470
0.239490
0.238510
0.237540
0.236560
0.235580
0.234600
0.233630
0.232650
0.232650
0.232650
0.233630
0.233630
0.233630
0.232650
0.232650
0.231670
0.230690
0.229720
0.227760
0.226780
0.225810
0.224830
0.226780
0.230690
0.240470
0.256110
0.280550
0.314760
0.355820
0.403710
0.454550
0.505380
0.554250
0.598240
0.632450
0.659820
0.686220
0.709680
0.730210
0.746820
0.760510
0.772240
0.780060
0.786900
0.791790
0.793740
0.793740
0.790810
0.784950
0.778100
0.767350
0.754640
0.738030
0.718480
0.697950
0.674490
0.651030
0.627570
0.605080
0.586510
0.569890
0.553270
0.539590
0.526880
0.517110
0.508310
0.501470
0.494620
0.488760
0.482890
0.477030
0.472140
0.467250
0.461390
0.454550
0.447700
0.439880
0.432060
0.424240
0.416420
0.407620
0.399800
0.391980
0.384160
0.377320
0.371460
0.365590
0.358750
0.350930
0.345060
0.338220
0.332360
0.326490
0.320630
0.315740
0.310850
0.307920
0.305960
0.302050
0.299120
0.296190
0.292280
0.289350
0.285430
0.282500
0.279570
0.276640
0.273700
0.270770
0.269790
0.267840
0.265880
0.263930
0.261970
0.260020
0.259040
0.260020
0.265880
0.275660
0.293260
0.317690
0.344090
0.373410
0.409580
0.449660
0.489740
0.527860
0.562070
0.592380
0.618770
0.639300
0.655910
0.668620
0.678400
0.684260
0.687190
0.690130
0.691100
0.691100
0.689150
0.684260
0.678400
0.668620
0.655910
0.640270
0.622680
0.604110
0.586510
0.565980
0.545450
0.524930
0.505380
0.487780
0.473120
0.459430
0.449660
0.440860
0.433040
0.427170
0.423260
0.419350
0.415440
0.411530
0.406650
0.401760
0.395890
0.390030
0.384160
0.377320
0.370480
0.362660
0.356790
0.350930
0.344090
0.337240
0.330400
0.323560
0.316720
0.309870
0.304010
0.298140
0.292280
0.286410
0.281520
0.278590
0.275660
0.271750
0.268820
0.264910
0.260020
0.256110
0.252200
0.248290
0.245360
0.241450
0.238510
0.237540
0.236560
0.234600
0.232650
0.229720
0.226780
0.223850
0.221900
0.228740
0.242420
0.254150
0.268820
0.288370
0.308900
0.333330
0.363640
0.398830
0.434020
0.469210
0.500490
0.528840
0.552300
0.570870
0.586510
0.598240
0.605080
0.609970
0.613880
0.615840
0.616810
0.615840
0.613880
0.609970
0.603130
0.594330
0.583580
0.568910
0.553270
0.537630
0.521990
0.504400
0.485830
0.468230
0.452590
0.438910
0.427170
0.418380
0.410560
0.405670
0.400780
0.397850
0.395890
0.392960
0.391010
0.388070
0.385140
0.381230
0.378300
0.373410
0.369500
0.365590
0.361680
0.357770
0.355820
0.352880
0.350930
0.348000
0.345060
0.343110
0.341150
0.339200
0.337240
0.335290
0.334310
0.333330
0.333330
0.333330
0.333330
0.333330
0.333330
0.333330
0.332360
0.332360
0.331380
0.330400
0.329420
0.329420
0.329420
0.329420
0.329420
0.329420
0.328450
0.327470
0.326490
0.326490
0.326490
0.330400
0.338220
0.351910
0.371460
0.392960
0.417400
0.448680
0.482890
0.518080
0.552300
0.584560
0.612900
0.636360
0.655910
0.672530
0.684260
0.692080
0.696970
0.700880
0.703810
0.705770
0.706740
0.705770
0.703810
0.698920
0.692080
0.683280
0.671550
0.657870
0.643210
0.627570
0.608990
0.590420
0.570870
0.551320
0.533720
0.518080
0.503420
0.491690
0.481920
0.474100
0.468230
0.463340
0.458460
0.454550
0.450640
0.446730
0.442820
0.438910
0.434020
0.429130
0.424240
0.418380
0.413490
0.407620
0.403710
0.397850
0.391980
0.386120
0.381230
0.375370
0.369500
0.364610
0.359730
0.354840
0.349950
0.346040
0.343110
0.340180
0.337240
0.333330
0.330400
0.326490
0.323560
0.320630
0.317690
0.313780
0.310850
0.308900
0.306940
0.305960
0.304010
0.301080
0.299120
0.296190
0.294230
0.293260
0.294230
0.300100
0.310850
0.328450
0.348000
0.371460
0.401760
0.436950
0.474100
0.510260
0.544480
0.575760
0.603130
0.625610
0.645160
0.660800
0.673510
0.682310
0.687190
0.693060
0.696970
0.699900
0.701860
0.701860
0.699900
0.695990
0.690130
0.681330
0.669600
0.656890
0.643210
0.625610
0.606060
0.586510
0.565000
0.545450
0.526880
0.510260
0.495600
0.482890
0.472140
0.463340
0.457480
0.452590
0.447700
0.443790
0.439880
0.435970
0.432060
0.428150
0.423260
0.418380
0.412510
0.406650
0.401760
0.396870
0.391980
0.386120
0.380250
0.373410
0.366570
0.360700
0.353860
0.348000
0.342130
0.337240
0.332360
0.328450
0.325510
0.322580
0.318670
0.314760
0.311830
0.307920
0.304990
0.301080
0.297170
0.294230
0.290320
0.288370
0.287390
0.285430
0.283480
0.280550
0.277610
0.274680
0.271750
0.270770
0.272730
0.279570
0.292280
0.311830
0.334310
0.360700
0.394920
0.433040
0.473120
0.513200
0.550340
0.583580
0.612900
0.637340
0.657870
0.674490
0.685240
0.693060
0.699900
0.704790
0.708700
0.710650
0.710650
0.709680
0.705770
0.698920
0.690130
0.678400
0.663730
0.648090
0.631480
0.611930
0.591400
0.568910
0.548390
0.527860
0.509290
0.492670
0.478980
0.467250
0.458460
0.451610
0.446730
0.442820
0.437930
0.434020
0.430110
0.425220
0.421310
0.416420
0.411530
0.406650
0.400780
0.395890
0.391980
0.387100
0.381230
0.374390
0.368520
0.361680
0.353860
0.347020
0.340180
0.334310
0.327470
0.321600
0.316720
0.312810
0.307920
0.303030
0.298140
0.292280
0.288370
0.284460
0.283480
0.285430
0.292280
0.305960
0.323560
0.344090
0.373410
0.407620
0.443790
0.480940
0.517110
0.548390
0.576740
0.599220
0.617790
0.632450
0.643210
0.650050
0.653960
0.656890
0.658850
0.657870
0.655910
0.652000
0.645160
0.635390
0.623660
0.609970
0.592380
0.575760
0.559140
0.539590
0.520040
0.499510
0.480940
0.464320
0.448680
0.435970
0.426200
0.418380
0.411530
0.406650
0.402740
0.399800
0.397850
0.394920
0.391010
0.388070
0.384160
0.379280
0.374390
0.369500
0.364610
0.358750
0.354840
0.350930
0.345060
0.340180
0.334310
0.328450
0.322580
0.316720
0.310850
0.304990
0.300100
0.295210
0.291300
0.287390
0.285430
0.282500
0.278590
0.275660
0.271750
0.268820
0.265880
0.262950
0.260020
0.257090
0.255130
0.254150
0.254150
0.253180
0.251220
0.250240
0.249270
0.248290
0.247310
0.246330
0.245360
0.244380
0.243400
0.242420
0.242420
0.242420
0.242420
0.241450
0.239490
0.238510
0.237540
0.238510
0.244380
0.255130
0.272730
0.297170
0.325510
0.355820
0.394920
0.436950
0.478980
0.520040
0.556210
0.588470
0.614860
0.636360
0.652980
0.665690
0.676440
0.682310
0.685240
0.688170
0.689150
0.689150
0.687190
0.684260
0.678400
0.669600
0.658850
0.646140
0.630500
0.614860
0.598240
0.579670
0.560120
0.541540
0.522970
0.505380
0.490710
0.478010
0.467250
0.458460
0.451610
0.445750
0.441840
0.437930
0.435000
0.431090
0.428150
0.424240
0.419350
0.414470
0.409580
0.404690
0.398830
0.392960
0.387100
0.383190
0.377320
0.371460
0.365590
0.359730
0.353860
0.348000
0.342130
0.336270
0.331380
0.326490
0.320630
0.317690
0.314760
0.310850
0.306940
0.303030
0.299120
0.295210
0.292280
0.292280
0.295210
0.295210
0.294230
0.293260
0.292280
0.290320
0.287390
0.285430
0.283480
0.280550
0.278590
0.276640
0.273700
0.271750
0.269790
0.269790
0.271750
0.277610
0.288370
0.305960
0.330400
0.361680
0.398830
0.438910
0.478980
0.518080
0.554250
0.584560
0.608020
0.624630
0.639300
0.652000
0.661780
0.667640
0.672530
0.674490
0.675460
0.674490
0.671550
0.666670
0.659820
0.651030
0.640270
0.626590
0.610950
0.592380
0.572830
0.552300
0.532750
0.514170
0.496580
0.481920
0.469210
0.460410
0.454550
0.449660
0.444770
0.441840
0.439880
0.437930
0.435000
0.433040
0.430110
0.426200
0.422290
0.419350
0.415440
0.411530
0.406650
0.402740
0.397850
0.392960
0.389050
0.385140
0.381230
0.377320
0.374390
0.371460
0.369500
0.367550
0.365590
0.363640
0.362660
0.360700
0.360700
0.359730
0.359730
0.359730
0.360700
0.360700
0.361680
0.362660
0.363640
0.363640
0.363640
0.363640
0.363640
0.363640
0.363640
0.362660
0.362660
0.361680
0.361680
0.361680
0.363640
0.367550
0.375370
0.388070
0.408600
0.435000
0.468230
0.506350
0.546430
0.587490
0.626590
0.657870
0.683280
0.708700
0.731180
0.750730
0.765400
0.778100
0.786900
0.793740
0.797650
0.800590
0.801560
0.798630
0.794720
0.790810
0.784950
0.775170
0.763440
0.748780
0.731180
0.712610
0.692080
0.669600
0.648090
0.627570
0.609970
0.594330
0.579670
0.566960
0.556210
0.547410
0.539590
0.533720
0.527860
0.522970
0.519060
0.514170
0.510260
0.505380
0.501470
0.496580
0.491690
0.485830
0.478980
0.472140
0.466280
0.459430
0.451610
0.444770
0.438910
0.433040
0.428150
0.423260
0.417400
0.411530
0.406650
0.401760
0.395890
0.391010
0.387100
0.382210
0.378300
0.374390
0.371460
0.368520
0.365590
0.362660
0.358750
0.354840
0.351910
0.348000
0.345060
0.342130
0.339200
0.336270
0.334310
0.333330
0.331380
0.330400
0.333330
0.340180
0.353860
0.375370
0.403710
0.438910
0.478980
0.521990
0.565000
0.600200
0.631480
0.662760
0.692080
0.717500
0.739000
0.756600
0.770280
0.782010
0.790810
0.797650
0.801560
0.803520
0.802540
0.800590
0.797650
0.792770
0.784950
0.773220
0.759530
0.742910
0.724340
0.702830
0.680350
0.657870
0.637340
0.617790
0.599220
0.580650
0.564030
0.550340
0.538610
0.528840
0.520040
0.514170
0.508310
0.503420
0.499510
0.495600
0.490710
0.486800
0.480940
0.476050
0.470190
0.464320
0.457480
0.451610
0.444770
0.437930
0.431090
0.425220
0.420330
0.405670
0.389050
0.379280
0.371460
0.364610
0.358750
0.353860
0.348970
0.345060
0.340180
0.337240
0.334310
0.331380
0.327470
0.323560
0.319650
0.315740
0.311830
0.307920
0.304990
0.302050
0.299120
0.297170
0.295210
0.293260
0.290320
0.288370
0.287390
0.289350
0.297170
0.310850
0.331380
0.358750
0.391980
0.430110
0.465300
0.498530
0.533720
0.568910
0.600200
0.627570
0.651030
0.670580
0.686220
0.697950
0.707720
0.714570
0.717500
0.718480
0.719450
0.718480
0.716520
0.711630
0.704790
0.695010
0.683280
0.668620
0.651030
0.632450
0.611930
0.592380
0.574780
0.556210
0.536660
0.520040
0.504400
0.490710
0.478980
0.470190
0.463340
0.457480
0.453570
0.450640
0.447700
0.443790
0.440860
0.436950
0.432060
0.427170
0.422290
0.416420
0.410560
0.403710
0.397850
0.391010
0.386120
0.382210
0.376340
0.371460
0.365590
0.359730
0.354840
0.348970
0.344090
0.339200
0.334310
0.330400
0.327470
0.324540
0.321600
0.318670
0.314760
0.311830
0.307920
0.304010
0.301080
0.297170
0.294230
0.290320
0.287390
0.285430
0.284460
0.282500
0.279570
0.276640
0.274680
0.274680
0.276640
0.283480
0.295210
0.314760
0.341150
0.369500
0.399800
0.435970
0.476050
0.516130
0.553270
0.592380
0.624630
0.645160
0.663730
0.678400
0.690130
0.698920
0.703810
0.705770
0.706740
0.707720
0.705770
0.702830
0.696970
0.689150
0.678400
0.665690
0.650050
0.632450
0.614860
0.597260
0.577710
0.558160
0.538610
0.520040
0.504400
0.490710
0.478980
0.469210
0.461390
0.456500
0.451610
0.448680
0.446730
0.443790
0.440860
0.437930
0.434020
0.430110
0.425220
0.419350
0.414470
0.408600
0.401760
0.396870
0.391980
0.387100
0.380250
0.374390
0.368520
0.362660
0.356790
0.350930
0.345060
0.340180
0.335290
0.330400
0.326490
0.323560
0.319650
0.316720
0.312810
0.308900
0.304990
0.301080
0.297170
0.294230
0.290320
0.286410
0.284460
0.283480
0.281520
0.278590
0.276640
0.273700
0.271750
0.269790
0.267840
0.268820
0.272730
0.281520
0.296190
0.314760
0.337240
0.368520
0.404690
0.443790
0.484850
0.523950
0.560120
0.591400
0.617790
0.640270
0.657870
0.669600
0.677420
0.684260
0.689150
0.692080
0.693060
0.693060
0.690130
0.685240
0.678400
0.668620
0.656890
0.643210
0.628540
0.610950
0.591400
0.570870
0.550340
0.530790
0.512220
0.494620
0.479960
0.468230
0.458460
0.450640
0.444770
0.440860
0.436950
0.433040
0.430110
0.426200
0.422290
0.418380
0.413490
0.405670
0.398830
0.392960
0.389050
0.384160
0.379280
0.373410
0.367550
0.361680
0.355820
0.348970
0.343110
0.337240
0.330400
0.324540
0.319650
0.314760
0.311830
0.307920
0.304010
0.300100
0.296190
0.292280
0.288370
0.285430
0.281520
0.277610
0.274680
0.272730
0.270770
0.267840
0.265880
0.262950
0.260020
0.257090
0.254150
0.251220
0.248290
0.246330
0.246330
0.249270
0.256110
0.266860
0.285430
0.310850
0.344090
0.384160
0.428150
0.473120
0.518080
0.559140
0.595310
0.626590
0.650050
0.666670
0.682310
0.694040
0.703810
0.710650
0.714570
0.716520
0.716520
0.714570
0.709680
0.702830
0.692080
0.680350
0.666670
0.650050
0.631480
0.610950
0.588470
0.566960
0.546430
0.526880
0.510260
0.495600
0.483870
0.475070
0.469210
0.464320
0.460410
0.458460
0.456500
0.455520
0.453570
0.451610
0.449660
0.446730
0.443790
0.439880
0.436950
0.434020
0.430110
0.426200
0.421310
0.416420
0.411530
0.406650
0.401760
0.396870
0.391010
0.385140
0.381230
0.376340
0.371460
0.366570
0.361680
0.356790
0.350930
0.346040
0.341150
0.336270
0.331380
0.329420
0.331380
0.336270
0.345060
0.362660
0.387100
0.419350
0.456500
0.497560
0.539590
0.581620
0.619750
0.653960
0.683280
0.708700
0.726300
0.738030
0.748780
0.756600
0.763440
0.766370
0.768330
0.768330
0.765400
0.760510
0.752690
0.741940
0.729230
0.714570
0.696970
0.676440
0.653960
0.630500
0.606060
0.582600
0.559140
0.538610
0.520040
0.504400
0.492670
0.483870
0.475070
0.468230
0.463340
0.458460
0.453570
0.449660
0.445750
0.441840
0.437930
0.432060
0.427170
0.422290
0.417400
0.410560
0.403710
0.396870
0.389050
0.382210
0.374390
0.367550
0.359730
0.352880
0.346040
0.340180
0.334310
0.329420
0.323560
0.320630
0.321600
0.327470
0.341150
0.361680
0.390030
0.424240
0.463340
0.505380
0.541540
0.572830
0.606060
0.636360
0.662760
0.685240
0.703810
0.717500
0.727270
0.733140
0.737050
0.738030
0.736070
0.732160
0.726300
0.718480
0.707720
0.694040
0.678400
0.658850
0.637340
0.613880
0.589440
0.564030
0.542520
0.522970
0.503420
0.484850
0.468230
0.454550
0.442820
0.433040
0.425220
0.419350
0.414470
0.409580
0.405670
0.402740
0.399800
0.395890
0.391980
0.387100
0.382210
0.376340
0.368520
0.361680
0.356790
0.350930
0.344090
0.339200
0.335290
0.329420
0.322580
0.316720
0.311830
0.306940
0.301080
0.296190
0.291300
0.286410
0.280550
0.275660
0.272730
0.270770
0.267840
0.264910
0.262950
0.261000
0.258060
0.256110
0.253180
0.251220
0.249270
0.247310
0.247310
0.247310
0.247310
0.247310
0.247310
0.247310
0.246330
0.245360
0.244380
0.244380
0.242420
0.241450
0.240470
0.240470
0.240470
0.239490
0.238510
0.237540
0.237540
0.237540
0.240470
0.247310
0.261000
0.283480
0.314760
0.348000
0.398830
0.451610
0.491690
0.537630
0.584560
0.627570
0.666670
0.699900
0.727270
0.751710
0.771260
0.782990
0.789830
0.794720
0.797650
0.800590
0.800590
0.799610
0.795700
0.788860
0.779080
0.766370
0.750730
0.731180
0.705770
0.676440
0.649070
0.629520
0.608990
0.587490
0.571850
0.555230
0.540570
0.527860
0.516130
0.507330
0.499510
0.492670
0.487780
0.482890
0.476050
0.468230
0.463340
0.458460
0.453570
0.446730
0.439880
0.433040
0.425220
0.418380
0.412510
0.405670
0.398830
0.391010
0.384160
0.377320
0.369500
0.360700
0.352880
0.347020
0.341150
0.336270
0.331380
0.327470
0.321600
0.314760
0.310850
0.307920
0.303030
0.297170
0.293260
0.289350
0.286410
0.284460
0.284460
0.282500
0.279570
0.276640
0.274680
0.271750
0.268820
0.266860
0.263930
0.261000
0.258060
0.255130
0.254150
0.253180
0.252200
0.251220
0.253180
0.258060
0.269790
0.287390
0.313780
0.348000
0.388070
0.433040
0.473120
0.510260
0.550340
0.588470
0.623660
0.653960
0.679370
0.698920
0.712610
0.723360
0.733140
0.739980
0.742910
0.742910
0.740960
0.737050
0.731180
0.723360
0.713590
0.699900
0.684260
0.665690
0.645160
0.623660
0.602150
0.581620
0.564030
0.545450
0.528840
0.513200
0.499510
0.488760
0.479960
0.472140
0.466280
0.461390
0.457480
0.453570
0.450640
0.446730
0.442820
0.438910
0.434020
0.428150
0.423260
0.416420
0.410560
0.403710
0.395890
0.389050
0.383190
0.377320
0.370480
0.363640
0.356790
0.349950
0.343110
0.335290
0.328450
0.322580
0.315740
0.310850
0.307920
0.306940
0.309870
0.316720
0.329420
0.348970
0.376340
0.408600
0.444770
0.482890
0.520040
0.555230
0.586510
0.609970
0.628540
0.644180
0.657870
0.666670
0.673510
0.676440
0.677420
0.675460
0.670580
0.662760
0.652980
0.641250
0.627570
0.610950
0.590420
0.568910
0.546430
0.522970
0.500490
0.478980
0.459430
0.442820
0.429130
0.417400
0.409580
0.403710
0.398830
0.394920
0.391980
0.389050
0.387100
0.384160
0.380250
0.376340
0.372430
0.368520
0.364610
0.361680
0.357770
0.352880
0.347020
0.342130
0.336270
0.330400
0.324540
0.318670
0.313780
0.309870
0.305960
0.303030
0.300100
0.296190
0.291300
0.287390
0.282500
0.277610
0.273700
0.268820
0.265880
0.263930
0.265880
0.270770
0.280550
0.297170
0.320630
0.350930
0.385140
0.423260
0.462370
0.499510
0.532750
0.563050
0.587490
0.608020
0.622680
0.631480
0.639300
0.645160
0.649070
0.651030
0.650050
0.647120
0.643210
0.636360
0.626590
0.614860
0.602150
0.588470
0.570870
0.552300
0.531770
0.511240
0.491690
0.474100
0.457480
0.443790
0.432060
0.424240
0.418380
0.414470
0.412510
0.410560
0.409580
0.409580
0.408600
0.407620
0.406650
0.404690
0.402740
0.399800
0.396870
0.394920
0.391980
0.389050
0.385140
0.382210
0.378300
0.374390
0.370480
0.367550
0.363640
0.359730
0.355820
0.351910
0.348970
0.346040
0.343110
0.339200
0.336270
0.333330
0.330400
0.327470
0.325510
0.322580
0.320630
0.318670
0.317690
0.316720
0.314760
0.312810
0.309870
0.307920
0.305960
0.303030
0.301080
0.298140
0.295210
0.293260
0.292280
0.294230
0.298140
0.306940
0.322580
0.346040
0.376340
0.412510
0.453570
0.496580
0.539590
0.579670
0.615840
0.644180
0.665690
0.686220
0.703810
0.719450
0.731180
0.739980
0.746820
0.750730
0.752690
0.752690
0.750730
0.745850
0.739980
0.731180
0.719450
0.706740
0.690130
0.671550
0.651030
0.628540
0.607040
0.584560
0.564030
0.544480
0.528840
0.516130
0.505380
0.494620
0.486800
0.479960
0.474100
0.468230
0.463340
0.458460
0.452590
0.447700
0.441840
0.437930
0.432060
0.426200
0.419350
0.412510
0.405670
0.397850
0.390030
0.382210
0.374390
0.366570
0.358750
0.352880
0.348000
0.345060
0.344090
0.348000
0.356790
0.371460
0.392960
0.419350
0.448680
0.480940
0.512220
0.538610
0.561090
0.582600
0.601170
0.616810
0.628540
0.637340
0.642230
0.643210
0.642230
0.639300
0.632450
0.623660
0.612900
0.601170
0.585530
0.567940
0.548390
0.527860
0.507330
0.486800
0.468230
0.451610
0.436950
0.426200
0.417400
0.411530
0.406650
0.403710
0.400780
0.398830
0.396870
0.395890
0.393940
0.391980
0.389050
0.386120
0.382210
0.379280
0.376340
0.372430
0.367550
0.362660
0.357770
0.352880
0.348000
0.343110
0.338220
0.333330
0.328450
0.324540
0.321600
0.317690
0.313780
0.309870
0.305960
0.302050
0.299120
0.295210
0.292280
0.289350
0.286410
0.283480
0.281520
0.280550
0.279570
0.277610
0.275660
0.273700
0.272730
0.270770
0.269790
0.268820
0.267840
0.266860
0.265880
0.266860
0.265880
0.265880
0.261970
0.256110
0.253180
0.252200
0.251220
0.250240
0.250240
0.250240
0.250240
0.251220
0.251220
0.252200
0.252200
0.252200
0.252200
0.252200
0.252200
0.252200
0.253180
0.253180
0.254150
0.255130
0.256110
0.257090
0.257090
0.257090
0.257090
0.256110
0.255130
0.254150
0.253180
0.252200
0.254150
0.260020
0.269790
0.284460
0.307920
0.340180
0.381230
0.428150
0.478980
0.529810
0.577710
0.622680
0.661780
0.695010
0.719450
0.737050
0.753670
0.767350
0.779080
0.787880
0.793740
0.796680
0.798630
0.796680
0.793740
0.786900
0.778100
0.766370
0.753670
0.737050
0.718480
0.697950
0.675460
0.652000
0.628540
0.607040
0.585530
0.566960
0.550340
0.536660
0.525900
0.516130
0.508310
0.501470
0.495600
0.489740
0.484850
0.478980
0.473120
0.467250
0.460410
0.453570
0.447700
0.441840
0.435000
0.428150
0.420330
0.412510
0.404690
0.396870
0.389050
0.382210
0.374390
0.367550
0.362660
0.357770
0.351910
0.346040
0.340180
0.334310
0.328450
0.322580
0.316720
0.310850
0.304990
0.300100
0.294230
0.290320
0.286410
0.282500
0.278590
0.273700
0.268820
0.264910
0.260020
0.256110
0.252200
0.248290
0.244380
0.242420
0.240470
0.237540
0.233630
0.228740
0.225810
0.224830
0.227760
0.235580
0.249270
0.270770
0.299120
0.328450
0.358750
0.394920
0.433040
0.469210
0.503420
0.532750
0.558160
0.577710
0.593350
0.605080
0.613880
0.619750
0.622680
0.623660
0.624630
0.623660
0.620720
0.615840
0.608990
0.600200
0.588470
0.574780
0.559140
0.542520
0.527860
0.513200
0.497560
0.483870
0.471160
0.460410
0.452590
0.446730
0.443790
0.441840
0.441840
0.441840
0.442820
0.442820
0.442820
0.441840
0.440860
0.439880
0.436950
0.434020
0.431090
0.427170
0.423260
0.419350
0.414470
0.410560
0.406650
0.402740
0.397850
0.391980
0.387100
0.381230
0.376340
0.371460
0.366570
0.360700
0.355820
0.350930
0.346040
0.343110
0.339200
0.334310
0.330400
0.326490
0.322580
0.318670
0.314760
0.311830
0.307920
0.304990
0.303030
0.302050
0.300100
0.297170
0.294230
0.291300
0.289350
0.287390
0.284460
0.282500
0.280550
0.278590
0.276640
0.275660
0.274680
0.273700
0.272730
0.272730
0.277610
0.286410
0.301080
0.322580
0.351910
0.386120
0.425220
0.460410
0.493650
0.528840
0.563050
0.593350
0.619750
0.642230
0.660800
0.674490
0.686220
0.694040
0.700880
0.704790
0.706740
0.706740
0.706740
0.704790
0.701860
0.696970
0.689150
0.679370
0.666670
0.652000
0.628540
0.601170
0.580650
0.564030
0.546430
0.530790
0.515150
0.502440
0.489740
0.479960
0.472140
0.464320
0.458460
0.453570
0.448680
0.444770
0.440860
0.436950
0.432060
0.427170
0.421310
0.415440
0.409580
0.402740
0.395890
0.389050
0.382210
0.376340
0.370480
0.364610
0.357770
0.350930
0.345060
0.339200
0.334310
0.329420
0.324540
0.319650
0.315740
0.311830
0.307920
0.305960
0.302050
0.298140
0.294230
0.290320
0.285430
0.281520
0.277610
0.274680
0.271750
0.267840
0.266860
0.265880
0.263930
0.261970
0.260020
0.258060
0.256110
0.254150
0.251220
0.249270
0.248290
0.246330
0.244380
0.243400
0.242420
0.240470
0.239490
0.238510
0.240470
0.246330
0.258060
0.274680
0.299120
0.327470
0.360700
0.391010
0.420330
0.450640
0.479960
0.506350
0.528840
0.546430
0.561090
0.571850
0.580650
0.586510
0.591400
0.593350
0.594330
0.595310
0.594330
0.593350
0.591400
0.586510
0.580650
0.572830
0.563050
0.551320
0.538610
0.524930
0.513200
0.501470
0.490710
0.479960
0.470190
0.463340
0.457480
0.454550
0.451610
0.450640
0.450640
0.450640
0.450640
0.450640
0.450640
0.449660
0.448680
0.446730
0.443790
0.440860
0.437930
0.434020
0.429130
0.425220
0.420330
0.416420
0.413490
0.408600
0.404690
0.399800
0.395890
0.392960
0.391010
0.392960
0.398830
0.408600
0.424240
0.440860
0.458460
0.480940
0.505380
0.528840
0.552300
0.571850
0.588470
0.601170
0.610950
0.616810
0.621700
0.623660
0.622680
0.621700
0.618770
0.614860
0.609970
0.603130
0.594330
0.583580
0.570870
0.557180
0.542520
0.526880
0.513200
0.500490
0.486800
0.474100
0.463340
0.453570
0.444770
0.438910
0.433040
0.429130
0.426200
0.423260
0.420330
0.417400
0.415440
0.413490
0.410560
0.407620
0.404690
0.400780
0.396870
0.392960
0.389050
0.385140
0.381230
0.378300
0.375370
0.371460
0.368520
0.364610
0.359730
0.355820
0.351910
0.348000
0.343110
0.339200
0.335290
0.331380
0.327470
0.325510
0.321600
0.317690
0.313780
0.309870
0.306940
0.305960
0.308900
0.315740
0.328450
0.346040
0.365590
0.387100
0.413490
0.441840
0.470190
0.497560
0.521020
0.541540
0.558160
0.571850
0.581620
0.589440
0.595310
0.599220
0.601170
0.602150
0.604110
0.604110
0.603130
0.601170
0.598240
0.592380
0.585530
0.576740
0.565980
0.554250
0.542520
0.528840
0.514170
0.499510
0.484850
0.472140
0.460410
0.450640
0.441840
0.435000
0.430110
0.426200
0.423260
0.421310
0.418380
0.416420
0.430110
0.449660
0.458460
0.460410
0.458460
0.454550
0.450640
0.445750
0.440860
0.436950
0.433040
0.430110
0.430110
0.434020
0.442820
0.456500
0.474100
0.494620
0.518080
0.541540
0.563050
0.580650
0.593350
0.605080
0.613880
0.617790
0.619750
0.616810
0.611930
0.604110
0.593350
0.579670
0.564030
0.549360
0.533720
0.516130
0.496580
0.477030
0.459430
0.442820
0.428150
0.417400
0.407620
0.401760
0.396870
0.394920
0.393940
0.393940
0.393940
0.394920
0.394920
0.394920
0.393940
0.392960
0.391010
0.388070
0.384160
0.380250
0.377320
0.374390
0.370480
0.365590
0.361680
0.356790
0.351910
0.347020
0.343110
0.339200
0.336270
0.333330
0.331380
0.329420
0.327470
0.324540
0.321600
0.318670
0.315740
0.312810
0.310850
0.307920
0.304990
0.302050
0.299120
0.297170
0.296190
0.295210
0.293260
0.291300
0.289350
0.288370
0.287390
0.285430
0.284460
0.283480
0.282500
0.282500
0.282500
0.282500
0.281520
0.281520
0.280550
0.280550
0.279570
0.279570
0.278590
0.277610
0.276640
0.275660
0.274680
0.274680
0.273700
0.272730
0.270770
0.269790
0.268820
0.269790
0.276640
0.290320
0.312810
0.344090
0.378300
0.414470
0.459430
0.506350
0.553270
0.595310
0.631480
0.661780
0.685240
0.703810
0.716520
0.726300
0.733140
0.736070
0.737050
0.737050
0.736070
0.734120
0.730210
0.725320
0.717500
0.707720
0.695990
0.682310
0.665690
0.650050
0.634410
0.616810
0.599220
0.581620
0.565980
0.551320
0.539590
0.528840
0.520040
0.513200
0.507330
0.502440
0.499510
0.495600
0.492670
0.488760
0.484850
0.480940
0.476050
0.470190
0.465300
0.458460
0.452590
0.445750
0.438910
0.434020
0.427170
0.419350
0.411530
0.404690
0.396870
0.390030
0.383190
0.376340
0.370480
0.363640
0.357770
0.352880
0.349950
0.345060
0.340180
0.335290
0.330400
0.325510
0.321600
0.317690
0.313780
0.309870
0.306940
0.304990
0.304010
0.302050
0.300100
0.297170
0.295210
0.293260
0.292280
0.290320
0.289350
0.287390
0.285430
0.283480
0.283480
0.282500
0.281520
0.280550
0.278590
0.277610
0.275660
0.274680
0.272730
0.270770
0.267840
0.264910
0.264910
0.266860
0.272730
0.283480
0.301080
0.325510
0.357770
0.394920
0.435970
0.476050
0.514170
0.548390
0.576740
0.597260
0.611930
0.623660
0.632450
0.637340
0.640270
0.641250
0.640270
0.637340
0.633430
0.628540
0.621700
0.612900
0.604110
0.592380
0.577710
0.562070
0.544480
0.525900
0.508310
0.490710
0.476050
0.462370
0.450640
0.439880
0.433040
0.430110
0.427170
0.425220
0.424240
0.424240
0.424240
0.424240
0.423260
0.423260
0.422290
0.420330
0.419350
0.419350
0.418380
0.417400
0.415440
0.414470
0.412510
0.411530
0.409580
0.408600
0.406650
0.405670
0.403710
0.402740
0.402740
0.401760
0.399800
0.398830
0.396870
0.395890
0.394920
0.393940
0.393940
0.392960
0.392960
0.393940
0.394920
0.395890
0.395890
0.396870
0.396870
0.397850
0.397850
0.398830
0.399800
0.400780
0.401760
0.402740
0.403710
0.404690
0.405670
0.405670
0.405670
0.405670
0.405670
0.404690
0.403710
0.402740
0.401760
0.399800
0.397850
0.396870
0.395890
0.397850
0.402740
0.414470
0.432060
0.457480
0.489740
0.525900
0.565980
0.605080
0.637340
0.664710
0.692080
0.716520
0.736070
0.751710
0.764420
0.773220
0.779080
0.782990
0.784950
0.784950
0.783970
0.781040
0.777130
0.771260
0.764420
0.755620
0.744870
0.731180
0.716520
0.698920
0.681330
0.661780
0.642230
0.625610
0.609970
0.595310
0.580650
0.568910
0.558160
0.549360
0.542520
0.537630
0.532750
0.528840
0.525900
0.521990
0.519060
0.515150
0.511240
0.507330
0.502440
0.496580
0.490710
0.485830
0.479960
0.474100
0.468230
0.462370
0.457480
0.452590
0.447700
0.441840
0.436950
0.434020
0.433040
0.436950
0.445750
0.461390
0.482890
0.509290
0.539590
0.565980
0.590420
0.616810
0.641250
0.662760
0.680350
0.694040
0.703810
0.710650
0.714570
0.715540
0.714570
0.710650
0.706740
0.700880
0.693060
0.683280
0.671550
0.657870
0.641250
0.623660
0.605080
0.585530
0.566960
0.549360
0.535680
0.522970
0.512220
0.503420
0.495600
0.490710
0.486800
0.483870
0.481920
0.480940
0.478980
0.477030
0.476050
0.474100
0.472140
0.468230
0.465300
0.460410
0.455520
0.451610
0.445750
0.440860
0.435970
0.431090
0.426200
0.421310
0.418380
0.413490
0.408600
0.404690
0.399800
0.395890
0.391010
0.387100
0.383190
0.379280
0.376340
0.373410
0.371460
0.368520
0.365590
0.362660
0.359730
0.355820
0.352880
0.349950
0.348000
0.345060
0.343110
0.342130
0.341150
0.341150
0.340180
0.338220
0.337240
0.335290
0.333330
0.332360
0.330400
0.327470
0.325510
0.323560
0.321600
0.321600
0.321600
0.322580
0.328450
0.339200
0.358750
0.385140
0.420330
0.460410
0.504400
0.548390
0.591400
0.626590
0.653960
0.681330
0.705770
0.727270
0.743890
0.757580
0.769310
0.778100
0.783970
0.788860
0.791790
0.791790
0.789830
0.787880
0.782990
0.776150
0.755620
0.725320
0.701860
0.679370
0.658850
0.637340
0.616810
0.598240
0.582600
0.566960
0.552300
0.539590
0.528840
0.520040
0.512220
0.506350
0.502440
0.498530
0.494620
0.490710
0.487780
0.483870
0.478980
0.473120
0.467250
0.461390
0.453570
0.446730
0.438910
0.430110
0.422290
0.413490
0.406650
0.399800
0.391980
0.385140
0.377320
0.368520
0.360700
0.353860
0.347020
0.343110
0.342130
0.346040
0.354840
0.367550
0.384160
0.407620
0.435970
0.466280
0.498530
0.527860
0.555230
0.577710
0.596290
0.609970
0.619750
0.625610
0.627570
0.628540
0.626590
0.622680
0.615840
0.607040
0.596290
0.582600
0.565980
0.547410
0.526880
0.505380
0.485830
0.468230
0.449660
0.432060
0.415440
0.401760
0.390030
0.381230
0.374390
0.369500
0.365590
0.363640
0.361680
0.360700
0.358750
0.355820
0.352880
0.348970
0.345060
0.340180
0.334310
0.328450
0.322580
0.315740
0.309870
0.304990
0.301080
0.295210
0.289350
0.283480
0.277610
0.271750
0.266860
0.261000
0.256110
0.250240
0.245360
0.241450
0.239490
0.235580
0.230690
0.226780
0.221900
0.217990
0.214080
0.210170
0.207230
0.203320
0.200390
0.197460
0.196480
0.195500
0.193550
0.191590
0.189640
0.186710
0.184750
0.182800
0.180840
0.178890
0.177910
0.176930
0.176930
0.176930
0.176930
0.175950
0.174980
0.174000
0.173020
0.172040
0.170090
0.169110
0.167160
0.166180
0.164220
0.164220
0.164220
0.164220
0.162270
0.161290
0.162270
0.167160
0.178890
0.198440
0.228740
0.267840
0.315740
0.360700
0.404690
0.454550
0.502440
0.547410
0.586510
0.619750
0.646140
0.666670
0.682310
0.694040
0.701860
0.707720
0.710650
0.711630
0.711630
0.710650
0.707720
0.702830
0.695010
0.684260
0.671550
0.655910
0.639300
0.621700
0.605080
0.589440
0.573800
0.559140
0.546430
0.535680
0.526880
0.521020
0.517110
0.514170
0.513200
0.512220
0.511240
0.510260
0.508310
0.506350
0.504400
0.501470
0.497560
0.493650
0.488760
0.483870
0.478980
0.473120
0.467250
0.462370
0.457480
0.451610
0.445750
0.439880
0.434020
0.428150
0.422290
0.416420
0.410560
0.404690
0.398830
0.392960
0.389050
0.384160
0.379280
0.374390
0.369500
0.364610
0.359730
0.354840
0.349950
0.346040
0.342130
0.338220
0.335290
0.333330
0.330400
0.328450
0.325510
0.322580
0.319650
0.316720
0.314760
0.311830
0.308900
0.305960
0.304990
0.303030
0.302050
0.299120
0.297170
0.294230
0.290320
0.287390
0.286410
0.286410
0.291300
0.303030
0.339200
0.387100
0.424240
0.462370
0.501470
0.541540
0.579670
0.615840
0.648090
0.675460
0.697950
0.716520
0.731180
0.740960
0.747800
0.753670
0.758550
0.763440
0.766370
0.767350
0.767350
0.765400
0.761490
0.755620
0.747800
0.737050
0.725320
0.711630
0.695990
0.679370
0.660800
0.642230
0.623660
0.607040
0.591400
0.577710
0.565000
0.555230
0.548390
0.542520
0.537630
0.532750
0.529810
0.525900
0.522970
0.520040
0.516130
0.512220
0.507330
0.502440
0.497560
0.492670
0.487780
0.482890
0.477030
0.470190
0.464320
0.458460
0.452590
0.446730
0.441840
0.435970
0.431090
0.426200
0.422290
0.417400
0.412510
0.407620
0.402740
0.398830
0.393940
0.390030
0.386120
0.383190
0.379280
0.376340
0.374390
0.373410
0.371460
0.369500
0.367550
0.365590
0.363640
0.361680
0.359730
0.356790
0.354840
0.352880
0.351910
0.350930
0.349950
0.348000
0.345060
0.342130
0.340180
0.338220
0.339200
0.344090
0.353860
0.370480
0.393940
0.419350
0.447700
0.481920
0.519060
0.557180
0.592380
0.625610
0.653960
0.677420
0.697950
0.713590
0.726300
0.735090
0.739980
0.745850
0.749760
0.752690
0.754640
0.754640
0.752690
0.749760
0.743890
0.735090
0.723360
0.709680
0.695990
0.680350
0.662760
0.644180
0.624630
0.607040
0.589440
0.573800
0.561090
0.549360
0.540570
0.533720
0.528840
0.525900
0.522970
0.520040
0.518080
0.516130
0.513200
0.510260
0.507330
0.503420
0.498530
0.493650
0.487780
0.482890
0.478010
0.472140
0.466280
0.459430
0.453570
0.446730
0.440860
0.435000
0.428150
0.422290
0.416420
0.411530
0.407620
0.402740
0.397850
0.392960
0.388070
0.383190
0.379280
0.374390
0.370480
0.366570
0.362660
0.358750
0.355820
0.354840
0.351910
0.348970
0.347020
0.344090
0.341150
0.339200
0.336270
0.334310
0.331380
0.328450
0.327470
0.326490
0.324540
0.322580
0.323560
0.327470
0.336270
0.351910
0.373410
0.401760
0.435000
0.471160
0.507330
0.539590
0.565980
0.592380
0.616810
0.636360
0.652000
0.664710
0.673510
0.679370
0.683280
0.685240
0.686220
0.684260
0.682310
0.678400
0.673510
0.666670
0.657870
0.647120
0.633430
0.618770
0.601170
0.583580
0.565980
0.550340
0.535680
0.521020
0.507330
0.495600
